1.259309e+003;2.905567e+000
1.260273e+003;2.845899e+000
1.261237e+003;2.828774e+000
1.262201e+003;2.845734e+000
1.263166e+003;2.808566e+000
1.264130e+003;2.718913e+000
1.265094e+003;2.661288e+000
1.266058e+003;2.651743e+000
1.267023e+003;2.643925e+000
1.267987e+003;2.616097e+000
1.268951e+003;2.593028e+000
1.269915e+003;2.569923e+000
1.270880e+003;2.508967e+000
1.271844e+003;2.416640e+000
1.272808e+003;2.331835e+000
1.273772e+003;2.262962e+000
1.274737e+003;2.196718e+000
1.275701e+003;2.131210e+000
1.276665e+003;2.072203e+000
1.277629e+003;2.013921e+000
1.278594e+003;1.947600e+000
1.279558e+003;1.878312e+000
1.280522e+003;1.815620e+000
1.281486e+003;1.758390e+000
1.282451e+003;1.700589e+000
1.283415e+003;1.643220e+000
1.284379e+003;1.590798e+000
1.285343e+003;1.542200e+000
1.286308e+003;1.493326e+000
1.287272e+003;1.444693e+000
1.288236e+003;1.399598e+000
1.289200e+003;1.357677e+000
1.290165e+003;1.316007e+000
1.291129e+003;1.274431e+000
1.292093e+003;1.235077e+000
1.293057e+003;1.198048e+000
1.294022e+003;1.161568e+000
1.294986e+003;1.125416e+000
1.295950e+003;1.090914e+000
1.296914e+003;1.058199e+000
1.297879e+003;1.026272e+000
1.298843e+003;9.951751e-001
1.299807e+003;9.657875e-001
1.300771e+003;9.378464e-001
1.301736e+003;9.101839e-001
1.302700e+003;8.826975e-001
1.303664e+003;8.563668e-001
1.304628e+003;8.315151e-001
1.305593e+003;8.075508e-001
1.306557e+003;7.842350e-001
1.307521e+003;7.618828e-001
1.308485e+003;7.403801e-001
1.309450e+003;7.191871e-001
1.310414e+003;6.982817e-001
1.311378e+003;6.781250e-001
1.312342e+003;6.587556e-001
1.313307e+003;6.397932e-001
1.314271e+003;6.212409e-001
1.315235e+003;6.034628e-001
1.316199e+003;5.864229e-001
1.317164e+003;5.697044e-001
1.318128e+003;5.532393e-001
1.319092e+003;5.373467e-001
1.320056e+003;5.220827e-001
1.321021e+003;5.071862e-001
1.321985e+003;4.926104e-001
1.322949e+003;4.785273e-001
1.323913e+003;4.648411e-001
1.324878e+003;4.512578e-001
1.325842e+003;4.378269e-001
1.326806e+003;4.249083e-001
1.327770e+003;4.125983e-001
1.328735e+003;4.006389e-001
1.329699e+003;3.888699e-001
1.330663e+003;3.773553e-001
1.331627e+003;3.660760e-001
1.332592e+003;3.549100e-001
1.333556e+003;3.439089e-001
1.334520e+003;3.332303e-001
1.335484e+003;3.228216e-001
1.336449e+003;3.125058e-001
1.337413e+003;3.023375e-001
1.338377e+003;2.925319e-001
1.339341e+003;2.830841e-001
1.340306e+003;2.737919e-001
1.341270e+003;2.646151e-001
1.342234e+003;2.556792e-001
1.343198e+003;2.469565e-001
1.344163e+003;2.382773e-001
1.345127e+003;2.296443e-001
1.346091e+003;2.212365e-001
1.347055e+003;2.131031e-001
1.348020e+003;2.051396e-001
1.348984e+003;1.973443e-001
1.349948e+003;1.898228e-001
1.350912e+003;1.825451e-001
1.351877e+003;1.753796e-001
1.352841e+003;1.683575e-001
1.353805e+003;1.616362e-001
1.354769e+003;1.551963e-001
1.355734e+003;1.488421e-001
1.356698e+003;1.425181e-001
1.357662e+003;1.363752e-001
1.358626e+003;1.304908e-001
1.359591e+003;1.247535e-001
1.360555e+003;1.190596e-001
1.361519e+003;1.134022e-001
1.362483e+003;1.077395e-001
1.363448e+003;1.019937e-001
1.364412e+003;9.622658e-002
1.365376e+003;9.062830e-002
1.366340e+003;8.528733e-002
1.367305e+003;8.013399e-002
1.368269e+003;7.512258e-002
1.369233e+003;7.030432e-002
1.370197e+003;6.570525e-002
1.371162e+003;6.128879e-002
1.372126e+003;5.704115e-002
1.373090e+003;5.293810e-002
1.374054e+003;4.884464e-002
1.375019e+003;4.462780e-002
1.375983e+003;4.036631e-002
1.376947e+003;3.626987e-002
1.377911e+003;3.240356e-002
1.378876e+003;2.867839e-002
1.379840e+003;2.509111e-002
1.380804e+003;2.173424e-002
1.381768e+003;1.853222e-002
1.382733e+003;1.520433e-002
1.383697e+003;1.157880e-002
1.384661e+003;7.761306e-003
1.385625e+003;3.904887e-003
1.386590e+003;1.722973e-006
1.387554e+003;-4.003302e-003
1.388518e+003;-8.055262e-003
1.389482e+003;-1.205562e-002
1.390447e+003;-1.596262e-002
1.391411e+003;-1.972721e-002
1.392375e+003;-2.325029e-002
1.393339e+003;-2.649263e-002
1.394304e+003;-2.953682e-002
1.395268e+003;-3.246067e-002
1.396232e+003;-3.522472e-002
1.397196e+003;-3.776509e-002
1.398161e+003;-4.012723e-002
1.399125e+003;-4.243690e-002
1.400089e+003;-4.478552e-002
1.401053e+003;-4.720021e-002
1.402018e+003;-4.968609e-002
1.402982e+003;-5.224745e-002
1.403946e+003;-5.488208e-002
1.404910e+003;-5.756880e-002
1.405875e+003;-6.023268e-002
1.406839e+003;-6.273842e-002
1.407803e+003;-6.497811e-002
1.408767e+003;-6.696581e-002
1.409732e+003;-6.879552e-002
1.410696e+003;-7.052321e-002
1.411660e+003;-7.214933e-002
1.412624e+003;-7.369872e-002
1.413589e+003;-7.523695e-002
1.414553e+003;-7.680934e-002
1.415517e+003;-7.842729e-002
1.416481e+003;-8.010261e-002
1.417446e+003;-8.184035e-002
1.418410e+003;-8.362594e-002
1.419374e+003;-8.546960e-002
1.420338e+003;-8.740005e-002
1.421302e+003;-8.933626e-002
1.422267e+003;-9.105020e-002
1.423231e+003;-9.239653e-002
1.424195e+003;-9.352262e-002
1.425160e+003;-9.470904e-002
1.426124e+003;-9.604050e-002
1.427088e+003;-9.739570e-002
1.428052e+003;-9.871862e-002
1.429016e+003;-1.000925e-001
1.429981e+003;-1.015496e-001
1.430945e+003;-1.030128e-001
1.431909e+003;-1.044570e-001
1.432874e+003;-1.059239e-001
1.433838e+003;-1.073370e-001
1.434802e+003;-1.085209e-001
1.435766e+003;-1.094943e-001
1.436730e+003;-1.105519e-001
1.437695e+003;-1.119154e-001
1.438659e+003;-1.134610e-001
1.439623e+003;-1.149308e-001
1.440588e+003;-1.162474e-001
1.441552e+003;-1.174900e-001
1.442516e+003;-1.187061e-001
1.443480e+003;-1.199039e-001
1.444444e+003;-1.211278e-001
1.445409e+003;-1.223971e-001
1.446373e+003;-1.236427e-001
1.447337e+003;-1.248270e-001
1.448302e+003;-1.260427e-001
1.449266e+003;-1.273719e-001
1.450230e+003;-1.287390e-001
1.451194e+003;-1.300315e-001
1.452158e+003;-1.312618e-001
1.453123e+003;-1.324458e-001
1.454087e+003;-1.334371e-001
1.455051e+003;-1.341005e-001
1.456016e+003;-1.346310e-001
1.456980e+003;-1.354848e-001
1.457944e+003;-1.369086e-001
1.458908e+003;-1.387044e-001
1.459872e+003;-1.405138e-001
1.460837e+003;-1.421483e-001
1.461801e+003;-1.435923e-001
1.462765e+003;-1.448691e-001
1.463729e+003;-1.460216e-001
1.464694e+003;-1.471439e-001
1.465658e+003;-1.483253e-001
1.466622e+003;-1.495724e-001
1.467586e+003;-1.508243e-001
1.468551e+003;-1.520039e-001
1.469515e+003;-1.530329e-001
1.470479e+003;-1.538671e-001
1.471443e+003;-1.545820e-001
1.472408e+003;-1.553821e-001
1.473372e+003;-1.564517e-001
1.474336e+003;-1.577925e-001
1.475300e+003;-1.592503e-001
1.476265e+003;-1.606821e-001
1.477229e+003;-1.620534e-001
1.478193e+003;-1.633929e-001
1.479157e+003;-1.647083e-001
1.480122e+003;-1.659682e-001
1.481086e+003;-1.671447e-001
1.482050e+003;-1.682456e-001
1.483014e+003;-1.693144e-001
1.483979e+003;-1.704140e-001
1.484943e+003;-1.716182e-001
1.485907e+003;-1.729811e-001
1.486871e+003;-1.744858e-001
1.487836e+003;-1.760410e-001
1.488800e+003;-1.775681e-001
1.489764e+003;-1.790906e-001
1.490728e+003;-1.806970e-001
1.491693e+003;-1.823974e-001
1.492657e+003;-1.840547e-001
1.493621e+003;-1.854928e-001
1.494585e+003;-1.866658e-001
1.495550e+003;-1.877146e-001
1.496514e+003;-1.888617e-001
1.497478e+003;-1.902410e-001
1.498442e+003;-1.918153e-001
1.499407e+003;-1.934483e-001
1.500371e+003;-1.950347e-001
1.501335e+003;-1.965379e-001
1.502299e+003;-1.979061e-001
1.503264e+003;-1.990077e-001
1.504228e+003;-1.997283e-001
1.505192e+003;-2.001528e-001
1.506156e+003;-2.006014e-001
1.507121e+003;-2.014123e-001
1.508085e+003;-2.026740e-001
1.509049e+003;-2.042086e-001
1.510013e+003;-2.057955e-001
1.510978e+003;-2.073661e-001
1.511942e+003;-2.089991e-001
1.512906e+003;-2.107596e-001
1.513870e+003;-2.125703e-001
1.514835e+003;-2.142699e-001
1.515799e+003;-2.157979e-001
1.516763e+003;-2.172554e-001
1.517727e+003;-2.187366e-001
1.518692e+003;-2.201670e-001
1.519656e+003;-2.214147e-001
1.520620e+003;-2.225360e-001
1.521584e+003;-2.237806e-001
1.522549e+003;-2.253034e-001
1.523513e+003;-2.269912e-001
1.524477e+003;-2.286430e-001
1.525441e+003;-2.302007e-001
1.526406e+003;-2.317152e-001
1.527370e+003;-2.331826e-001
1.528334e+003;-2.345402e-001
1.529298e+003;-2.357796e-001
1.530263e+003;-2.369324e-001
1.531227e+003;-2.379573e-001
1.532191e+003;-2.387806e-001
1.533155e+003;-2.394829e-001
1.534120e+003;-2.403133e-001
1.535084e+003;-2.414107e-001
1.536048e+003;-2.425963e-001
1.537012e+003;-2.435532e-001
1.537977e+003;-2.441763e-001
1.538941e+003;-2.446866e-001
1.539905e+003;-2.454092e-001
1.540869e+003;-2.464761e-001
1.541834e+003;-2.477574e-001
1.542798e+003;-2.490227e-001
1.543762e+003;-2.501306e-001
1.544726e+003;-2.511060e-001
1.545691e+003;-2.520659e-001
1.546655e+003;-2.530649e-001
1.547619e+003;-2.540361e-001
1.548583e+003;-2.549074e-001
1.549548e+003;-2.557242e-001
1.550512e+003;-2.565732e-001
1.551476e+003;-2.574051e-001
1.552440e+003;-2.580583e-001
1.553405e+003;-2.584889e-001
1.554369e+003;-2.588493e-001
1.555333e+003;-2.592380e-001
1.556297e+003;-2.594743e-001
1.557262e+003;-2.592981e-001
1.558226e+003;-2.587897e-001
1.559190e+003;-2.584411e-001
1.560154e+003;-2.586853e-001
1.561119e+003;-2.594407e-001
1.562083e+003;-2.602388e-001
1.563047e+003;-2.606893e-001
1.564011e+003;-2.607212e-001
1.564976e+003;-2.604736e-001
1.565940e+003;-2.600756e-001
1.566904e+003;-2.595468e-001
1.567868e+003;-2.588521e-001
1.568833e+003;-2.579974e-001
1.569797e+003;-2.570708e-001
1.570761e+003;-2.561921e-001
1.571725e+003;-2.554011e-001
1.572690e+003;-2.545828e-001
1.573654e+003;-2.535271e-001
1.574618e+003;-2.521068e-001
1.575582e+003;-2.504359e-001
1.576547e+003;-2.488209e-001
1.577511e+003;-2.474871e-001
1.578475e+003;-2.463670e-001
1.579439e+003;-2.452066e-001
1.580404e+003;-2.438390e-001
1.581368e+003;-2.422962e-001
1.582332e+003;-2.406808e-001
1.583296e+003;-2.390281e-001
1.584260e+003;-2.373420e-001
1.585225e+003;-2.356796e-001
1.586189e+003;-2.341001e-001
1.587153e+003;-2.325680e-001
1.588118e+003;-2.309963e-001
1.589082e+003;-2.293614e-001
1.590046e+003;-2.276963e-001
1.591010e+003;-2.259857e-001
1.591974e+003;-2.241610e-001
1.592939e+003;-2.222104e-001
1.593903e+003;-2.202099e-001
1.594867e+003;-2.182213e-001
1.595832e+003;-2.162285e-001
1.596796e+003;-2.141962e-001
1.597760e+003;-2.121256e-001
1.598724e+003;-2.100217e-001
1.599688e+003;-2.078674e-001
1.600653e+003;-2.056585e-001
1.601617e+003;-2.034213e-001
1.602581e+003;-2.011672e-001
1.603546e+003;-1.988784e-001
1.604510e+003;-1.965554e-001
1.605474e+003;-1.942269e-001
1.606438e+003;-1.919022e-001
1.607402e+003;-1.895700e-001
1.608367e+003;-1.872554e-001
1.609331e+003;-1.850124e-001
1.610295e+003;-1.828520e-001
1.611260e+003;-1.807541e-001
1.612224e+003;-1.787488e-001
1.613188e+003;-1.768797e-001
1.614152e+003;-1.750680e-001
1.615116e+003;-1.731605e-001
1.616081e+003;-1.711862e-001
1.617045e+003;-1.694332e-001
1.618009e+003;-1.681277e-001
1.618974e+003;-1.671453e-001
1.619938e+003;-1.661822e-001
1.620902e+003;-1.651135e-001
1.621866e+003;-1.640525e-001
1.622830e+003;-1.631339e-001
1.623795e+003;-1.623845e-001
1.624759e+003;-1.617810e-001
1.625723e+003;-1.612939e-001
1.626688e+003;-1.608714e-001
1.627652e+003;-1.604962e-001
1.628616e+003;-1.602530e-001
1.629580e+003;-1.602419e-001
1.630544e+003;-1.604347e-001
1.631509e+003;-1.607068e-001
1.632473e+003;-1.609855e-001
1.633437e+003;-1.612763e-001
1.634401e+003;-1.616023e-001
1.635366e+003;-1.620394e-001
1.636330e+003;-1.627595e-001
1.637294e+003;-1.638655e-001
1.638258e+003;-1.652146e-001
1.639223e+003;-1.665575e-001
1.640187e+003;-1.678272e-001
1.641151e+003;-1.691486e-001
1.642115e+003;-1.705872e-001
1.643080e+003;-1.720614e-001
1.644044e+003;-1.735196e-001
1.645008e+003;-1.750345e-001
1.645972e+003;-1.766952e-001
1.646937e+003;-1.785626e-001
1.647901e+003;-1.807313e-001
1.648865e+003;-1.832152e-001
1.649829e+003;-1.857268e-001
1.650794e+003;-1.878126e-001
1.651758e+003;-1.893643e-001
1.652722e+003;-1.908891e-001
1.653686e+003;-1.930624e-001
1.654651e+003;-1.960344e-001
1.655615e+003;-1.993947e-001
1.656579e+003;-2.026866e-001
1.657543e+003;-2.057306e-001
1.658508e+003;-2.085734e-001
1.659472e+003;-2.113253e-001
1.660436e+003;-2.140496e-001
1.661400e+003;-2.167302e-001
1.662365e+003;-2.193380e-001
1.663329e+003;-2.219363e-001
1.664293e+003;-2.246501e-001
1.665257e+003;-2.274968e-001
1.666222e+003;-2.303341e-001
1.667186e+003;-2.330335e-001
1.668150e+003;-2.356349e-001
1.669114e+003;-2.382730e-001
1.670079e+003;-2.410150e-001
1.671043e+003;-2.438216e-001
1.672007e+003;-2.465946e-001
1.672971e+003;-2.492145e-001
1.673936e+003;-2.516296e-001
1.674900e+003;-2.539751e-001
1.675864e+003;-2.564913e-001
1.676828e+003;-2.592309e-001
1.677793e+003;-2.619739e-001
1.678757e+003;-2.645335e-001
1.679721e+003;-2.669861e-001
1.680685e+003;-2.694499e-001
1.681650e+003;-2.717755e-001
1.682614e+003;-2.737100e-001
1.683578e+003;-2.753429e-001
1.684542e+003;-2.771410e-001
1.685507e+003;-2.794359e-001
1.686471e+003;-2.820700e-001
1.687435e+003;-2.846628e-001
1.688399e+003;-2.870170e-001
1.689364e+003;-2.891777e-001
1.690328e+003;-2.912732e-001
1.691292e+003;-2.933952e-001
1.692256e+003;-2.955191e-001
1.693221e+003;-2.974648e-001
1.694185e+003;-2.990609e-001
1.695149e+003;-3.004487e-001
1.696113e+003;-3.020667e-001
1.697078e+003;-3.041359e-001
1.698042e+003;-3.063235e-001
1.699006e+003;-3.081667e-001
1.699970e+003;-3.097122e-001
1.700935e+003;-3.114786e-001
1.701899e+003;-3.137366e-001
1.702863e+003;-3.161372e-001
1.703827e+003;-3.181948e-001
1.704792e+003;-3.198564e-001
1.705756e+003;-3.214342e-001
1.706720e+003;-3.231291e-001
1.707684e+003;-3.248529e-001
1.708649e+003;-3.264754e-001
1.709613e+003;-3.280028e-001
1.710577e+003;-3.294655e-001
1.711541e+003;-3.308161e-001
1.712506e+003;-3.320214e-001
1.713470e+003;-3.331290e-001
1.714434e+003;-3.341588e-001
1.715398e+003;-3.350386e-001
1.716363e+003;-3.357589e-001
1.717327e+003;-3.365138e-001
1.718291e+003;-3.375448e-001
1.719255e+003;-3.388594e-001
1.720220e+003;-3.402149e-001
1.721184e+003;-3.413682e-001
1.722148e+003;-3.422485e-001
1.723112e+003;-3.429169e-001
1.724077e+003;-3.434623e-001
1.725041e+003;-3.439510e-001
1.726005e+003;-3.443948e-001
1.726969e+003;-3.447307e-001
1.727934e+003;-3.448955e-001
1.728898e+003;-3.449470e-001
1.729862e+003;-3.450334e-001
1.730826e+003;-3.451833e-001
1.731791e+003;-3.452127e-001
1.732755e+003;-3.449535e-001
1.733719e+003;-3.445466e-001
1.734683e+003;-3.443551e-001
1.735648e+003;-3.445215e-001
1.736612e+003;-3.447618e-001
1.737576e+003;-3.446949e-001
1.738540e+003;-3.442591e-001
1.739505e+003;-3.437094e-001
1.740469e+003;-3.432627e-001
1.741433e+003;-3.428848e-001
1.742397e+003;-3.424461e-001
1.743362e+003;-3.419217e-001
1.744326e+003;-3.413490e-001
1.745290e+003;-3.406976e-001
1.746254e+003;-3.399036e-001
1.747219e+003;-3.389757e-001
1.748183e+003;-3.379633e-001
1.749147e+003;-3.368558e-001
1.750111e+003;-3.356369e-001
1.751076e+003;-3.344207e-001
1.752040e+003;-3.333927e-001
1.753004e+003;-3.325725e-001
1.753968e+003;-3.317495e-001
1.754933e+003;-3.307202e-001
1.755897e+003;-3.295069e-001
1.756861e+003;-3.282871e-001
1.757825e+003;-3.271631e-001
1.758790e+003;-3.260831e-001
1.759754e+003;-3.249561e-001
1.760718e+003;-3.237646e-001
1.761682e+003;-3.225655e-001
1.762647e+003;-3.214393e-001
1.763611e+003;-3.204259e-001
1.764575e+003;-3.194630e-001
1.765539e+003;-3.184060e-001
1.766504e+003;-3.171774e-001
1.767468e+003;-3.158904e-001
1.768432e+003;-3.147405e-001
1.769396e+003;-3.137489e-001
1.770361e+003;-3.127162e-001
1.771325e+003;-3.114885e-001
1.772289e+003;-3.101837e-001
1.773253e+003;-3.090605e-001
1.774218e+003;-3.081993e-001
1.775182e+003;-3.074295e-001
1.776146e+003;-3.065517e-001
1.777110e+003;-3.055105e-001
1.778075e+003;-3.043455e-001
1.779039e+003;-3.030970e-001
1.780003e+003;-3.018169e-001
1.780967e+003;-3.005835e-001
1.781932e+003;-2.994190e-001
1.782896e+003;-2.982477e-001
1.783860e+003;-2.970091e-001
1.784824e+003;-2.957627e-001
1.785789e+003;-2.946012e-001
1.786753e+003;-2.934989e-001
1.787717e+003;-2.923345e-001
1.788681e+003;-2.910388e-001
1.789646e+003;-2.896395e-001
1.790610e+003;-2.881862e-001
1.791574e+003;-2.867292e-001
1.792538e+003;-2.853632e-001
1.793503e+003;-2.841747e-001
1.794467e+003;-2.831221e-001
1.795431e+003;-2.820569e-001
1.796395e+003;-2.808903e-001
1.797359e+003;-2.796580e-001
1.798324e+003;-2.784056e-001
1.799288e+003;-2.771070e-001
1.800252e+003;-2.757498e-001
1.801217e+003;-2.744088e-001
1.802181e+003;-2.731550e-001
1.803145e+003;-2.719442e-001
1.804109e+003;-2.706709e-001
1.805073e+003;-2.693000e-001
1.806038e+003;-2.678849e-001
1.807002e+003;-2.664874e-001
1.807966e+003;-2.651299e-001
1.808931e+003;-2.638039e-001
1.809895e+003;-2.624739e-001
1.810859e+003;-2.610973e-001
1.811823e+003;-2.596759e-001
1.812787e+003;-2.582567e-001
1.813752e+003;-2.568494e-001
1.814716e+003;-2.553811e-001
1.815680e+003;-2.537803e-001
1.816645e+003;-2.520616e-001
1.817609e+003;-2.502726e-001
1.818573e+003;-2.484041e-001
1.819537e+003;-2.464259e-001
1.820501e+003;-2.443798e-001
1.821466e+003;-2.423470e-001
1.822430e+003;-2.403327e-001
1.823394e+003;-2.382691e-001
1.824359e+003;-2.361400e-001
1.825323e+003;-2.340184e-001
1.826287e+003;-2.319463e-001
1.827251e+003;-2.298424e-001
1.828215e+003;-2.275790e-001
1.829180e+003;-2.251205e-001
1.830144e+003;-2.225459e-001
1.831108e+003;-2.199558e-001
1.832073e+003;-2.173846e-001
1.833037e+003;-2.148002e-001
1.834001e+003;-2.121600e-001
1.834965e+003;-2.094508e-001
1.835929e+003;-2.066859e-001
1.836894e+003;-2.038849e-001
1.837858e+003;-2.010831e-001
1.838822e+003;-1.983430e-001
1.839786e+003;-1.957017e-001
1.840751e+003;-1.930866e-001
1.841715e+003;-1.903365e-001
1.842679e+003;-1.873626e-001
1.843643e+003;-1.842675e-001
1.844608e+003;-1.812490e-001
1.845572e+003;-1.783934e-001
1.846536e+003;-1.756173e-001
1.847500e+003;-1.728147e-001
1.848465e+003;-1.699979e-001
1.849429e+003;-1.672758e-001
1.850393e+003;-1.647379e-001
1.851357e+003;-1.623928e-001
1.852322e+003;-1.602022e-001
1.853286e+003;-1.581389e-001
1.854250e+003;-1.561984e-001
1.855214e+003;-1.543606e-001
1.856179e+003;-1.525602e-001
1.857143e+003;-1.507244e-001
1.858107e+003;-1.488518e-001
1.859071e+003;-1.470409e-001
1.860036e+003;-1.454231e-001
1.861000e+003;-1.440759e-001
1.861964e+003;-1.430103e-001
1.862928e+003;-1.422225e-001
1.863893e+003;-1.417290e-001
1.864857e+003;-1.415435e-001
1.865821e+003;-1.416354e-001
1.866785e+003;-1.419303e-001
1.867750e+003;-1.423605e-001
1.868714e+003;-1.429099e-001
1.869678e+003;-1.436005e-001
1.870642e+003;-1.444350e-001
1.871607e+003;-1.453864e-001
1.872571e+003;-1.464559e-001
1.873535e+003;-1.477111e-001
1.874499e+003;-1.492344e-001
1.875464e+003;-1.510479e-001
1.876428e+003;-1.531185e-001
1.877392e+003;-1.554201e-001
1.878356e+003;-1.579539e-001
1.879321e+003;-1.607103e-001
1.880285e+003;-1.636419e-001
1.881249e+003;-1.666802e-001
1.882213e+003;-1.697570e-001
1.883178e+003;-1.728225e-001
1.884142e+003;-1.758703e-001
1.885106e+003;-1.789443e-001
1.886070e+003;-1.820961e-001
1.887035e+003;-1.853435e-001
1.887999e+003;-1.886892e-001
1.888963e+003;-1.921634e-001
1.889927e+003;-1.958110e-001
1.890892e+003;-1.996314e-001
1.891856e+003;-2.035581e-001
1.892820e+003;-2.074906e-001
1.893784e+003;-2.113322e-001
1.894749e+003;-2.150160e-001
1.895713e+003;-2.185332e-001
1.896677e+003;-2.219279e-001
1.897641e+003;-2.252389e-001
1.898606e+003;-2.284569e-001
1.899570e+003;-2.315710e-001
1.900534e+003;-2.346346e-001
1.901498e+003;-2.377323e-001
1.902463e+003;-2.408809e-001
1.903427e+003;-2.440130e-001
1.904391e+003;-2.470626e-001
1.905355e+003;-2.500173e-001
1.906320e+003;-2.528737e-001
1.907284e+003;-2.555949e-001
1.908248e+003;-2.581435e-001
1.909212e+003;-2.605206e-001
1.910177e+003;-2.627372e-001
1.911141e+003;-2.647856e-001
1.912105e+003;-2.666792e-001
1.913069e+003;-2.684883e-001
1.914034e+003;-2.702832e-001
1.914998e+003;-2.720541e-001
1.915962e+003;-2.737423e-001
1.916926e+003;-2.753434e-001
1.917891e+003;-2.769273e-001
1.918855e+003;-2.785301e-001
1.919819e+003;-2.800722e-001
1.920783e+003;-2.814233e-001
1.921748e+003;-2.825294e-001
1.922712e+003;-2.834470e-001
1.923676e+003;-2.842607e-001
1.924640e+003;-2.850000e-001
1.925605e+003;-2.856508e-001
1.926569e+003;-2.862210e-001
1.927533e+003;-2.867641e-001
1.928497e+003;-2.873329e-001
1.929462e+003;-2.879296e-001
1.930426e+003;-2.885137e-001
1.931390e+003;-2.890391e-001
1.932354e+003;-2.894645e-001
1.933319e+003;-2.897432e-001
1.934283e+003;-2.898375e-001
1.935247e+003;-2.897585e-001
1.936211e+003;-2.895711e-001
1.937176e+003;-2.893444e-001
1.938140e+003;-2.891046e-001
1.939104e+003;-2.888454e-001
1.940068e+003;-2.885696e-001
1.941033e+003;-2.883034e-001
1.941997e+003;-2.880770e-001
1.942961e+003;-2.878993e-001
1.943925e+003;-2.877456e-001
1.944890e+003;-2.875631e-001
1.945854e+003;-2.872978e-001
1.946818e+003;-2.869263e-001
1.947782e+003;-2.864584e-001
1.948747e+003;-2.859139e-001
1.949711e+003;-2.853116e-001
1.950675e+003;-2.846856e-001
1.951639e+003;-2.840875e-001
1.952604e+003;-2.835503e-001
1.953568e+003;-2.830561e-001
1.954532e+003;-2.825550e-001
1.955496e+003;-2.820191e-001
1.956461e+003;-2.814782e-001
1.957425e+003;-2.810085e-001
1.958389e+003;-2.806784e-001
1.959353e+003;-2.804787e-001
1.960318e+003;-2.803042e-001
1.961282e+003;-2.800298e-001
1.962246e+003;-2.796218e-001
1.963210e+003;-2.791573e-001
1.964175e+003;-2.787353e-001
1.965139e+003;-2.783980e-001
1.966103e+003;-2.781476e-001
1.967067e+003;-2.779864e-001
1.968031e+003;-2.778956e-001
1.968996e+003;-2.778034e-001
1.969960e+003;-2.776373e-001
1.970924e+003;-2.774047e-001
1.971889e+003;-2.771806e-001
1.972853e+003;-2.770109e-001
1.973817e+003;-2.768711e-001
1.974781e+003;-2.767338e-001
1.975745e+003;-2.766370e-001
1.976710e+003;-2.766588e-001
1.977674e+003;-2.768379e-001
1.978638e+003;-2.771338e-001
1.979603e+003;-2.774572e-001
1.980567e+003;-2.777331e-001
1.981531e+003;-2.779475e-001
1.982495e+003;-2.781442e-001
1.983459e+003;-2.783739e-001
1.984424e+003;-2.786484e-001
1.985388e+003;-2.789553e-001
1.986352e+003;-2.793093e-001
1.987317e+003;-2.797615e-001
1.988281e+003;-2.803516e-001
1.989245e+003;-2.810678e-001
1.990209e+003;-2.818626e-001
1.991173e+003;-2.826921e-001
1.992138e+003;-2.835319e-001
1.993102e+003;-2.843696e-001
1.994066e+003;-2.852043e-001
1.995031e+003;-2.860493e-001
1.995995e+003;-2.869276e-001
1.996959e+003;-2.878633e-001
1.997923e+003;-2.888779e-001
1.998887e+003;-2.899915e-001
1.999852e+003;-2.912213e-001
2.000816e+003;-2.925786e-001
2.001780e+003;-2.940616e-001
2.002745e+003;-2.956361e-001
2.003709e+003;-2.972300e-001
2.004673e+003;-2.987703e-001
2.005637e+003;-3.002366e-001
2.006601e+003;-3.016683e-001
2.007566e+003;-3.031150e-001
2.008530e+003;-3.046001e-001
2.009494e+003;-3.061415e-001
2.010458e+003;-3.077855e-001
2.011423e+003;-3.095870e-001
2.012387e+003;-3.115571e-001
2.013351e+003;-3.136469e-001
2.014315e+003;-3.157834e-001
2.015280e+003;-3.179099e-001
2.016244e+003;-3.199965e-001
2.017208e+003;-3.220358e-001
2.018172e+003;-3.240381e-001
2.019137e+003;-3.260223e-001
2.020101e+003;-3.280071e-001
2.021065e+003;-3.300155e-001
2.022029e+003;-3.320812e-001
2.022994e+003;-3.342333e-001
2.023958e+003;-3.364707e-001
2.024922e+003;-3.387663e-001
2.025886e+003;-3.410965e-001
2.026851e+003;-3.434532e-001
2.027815e+003;-3.458208e-001
2.028779e+003;-3.481610e-001
2.029743e+003;-3.504342e-001
2.030708e+003;-3.526239e-001
2.031672e+003;-3.547350e-001
2.032636e+003;-3.567810e-001
2.033600e+003;-3.587902e-001
2.034565e+003;-3.608128e-001
2.035529e+003;-3.628991e-001
2.036493e+003;-3.650632e-001
2.037457e+003;-3.672760e-001
2.038422e+003;-3.694894e-001
2.039386e+003;-3.716629e-001
2.040350e+003;-3.737687e-001
2.041314e+003;-3.757904e-001
2.042279e+003;-3.777218e-001
2.043243e+003;-3.795666e-001
2.044207e+003;-3.813375e-001
2.045171e+003;-3.830610e-001
2.046136e+003;-3.847747e-001
2.047100e+003;-3.865106e-001
2.048064e+003;-3.882747e-001
2.049028e+003;-3.900478e-001
2.049993e+003;-3.918008e-001
2.050957e+003;-3.935041e-001
2.051921e+003;-3.951291e-001
2.052885e+003;-3.966569e-001
2.053850e+003;-3.980924e-001
2.054814e+003;-3.994586e-001
2.055778e+003;-4.007772e-001
2.056742e+003;-4.020629e-001
2.057707e+003;-4.033380e-001
2.058671e+003;-4.046312e-001
2.059635e+003;-4.059496e-001
2.060599e+003;-4.072600e-001
2.061564e+003;-4.085176e-001
2.062528e+003;-4.097073e-001
2.063492e+003;-4.108425e-001
2.064456e+003;-4.119261e-001
2.065421e+003;-4.129349e-001
2.066385e+003;-4.138494e-001
2.067349e+003;-4.146847e-001
2.068313e+003;-4.154818e-001
2.069278e+003;-4.162741e-001
2.070242e+003;-4.170723e-001
2.071206e+003;-4.178719e-001
2.072170e+003;-4.186626e-001
2.073135e+003;-4.194291e-001
2.074099e+003;-4.201495e-001
2.075063e+003;-4.208000e-001
2.076027e+003;-4.213654e-001
2.076992e+003;-4.218509e-001
2.077956e+003;-4.222880e-001
2.078920e+003;-4.227180e-001
2.079884e+003;-4.231660e-001
2.080849e+003;-4.236304e-001
2.081813e+003;-4.240991e-001
2.082777e+003;-4.245678e-001
2.083741e+003;-4.250323e-001
2.084706e+003;-4.254719e-001
2.085670e+003;-4.258512e-001
2.086634e+003;-4.261470e-001
2.087598e+003;-4.263732e-001
2.088563e+003;-4.265748e-001
2.089527e+003;-4.267972e-001
2.090491e+003;-4.270543e-001
2.091455e+003;-4.273283e-001
2.092420e+003;-4.275970e-001
2.093384e+003;-4.278555e-001
2.094348e+003;-4.281023e-001
2.095312e+003;-4.283143e-001
2.096277e+003;-4.284573e-001
2.097241e+003;-4.285276e-001
2.098205e+003;-4.285641e-001
2.099169e+003;-4.286099e-001
2.100134e+003;-4.286723e-001
2.101098e+003;-4.287302e-001
2.102062e+003;-4.287677e-001
2.103026e+003;-4.287876e-001
2.103990e+003;-4.288028e-001
2.104955e+003;-4.288243e-001
2.105919e+003;-4.288550e-001
2.106883e+003;-4.288811e-001
2.107848e+003;-4.288774e-001
2.108812e+003;-4.288304e-001
2.109776e+003;-4.287520e-001
2.110740e+003;-4.286589e-001
2.111705e+003;-4.285517e-001
2.112669e+003;-4.284277e-001
2.113633e+003;-4.283043e-001
2.114597e+003;-4.282076e-001
2.115562e+003;-4.281367e-001
2.116526e+003;-4.280592e-001
2.117490e+003;-4.279441e-001
2.118454e+003;-4.277891e-001
2.119418e+003;-4.276114e-001
2.120383e+003;-4.274240e-001
2.121347e+003;-4.272290e-001
2.122311e+003;-4.270270e-001
2.123276e+003;-4.268264e-001
2.124240e+003;-4.266411e-001
2.125204e+003;-4.264743e-001
2.126168e+003;-4.263077e-001
2.127133e+003;-4.261166e-001
2.128097e+003;-4.258969e-001
2.129061e+003;-4.256657e-001
2.130025e+003;-4.254362e-001
2.130990e+003;-4.252072e-001
2.131954e+003;-4.249867e-001
2.132918e+003;-4.248004e-001
2.133882e+003;-4.246594e-001
2.134846e+003;-4.245319e-001
2.135811e+003;-4.243711e-001
2.136775e+003;-4.241629e-001
2.137739e+003;-4.239297e-001
2.138704e+003;-4.236979e-001
2.139668e+003;-4.234768e-001
2.140632e+003;-4.232653e-001
2.141596e+003;-4.230567e-001
2.142561e+003;-4.228393e-001
2.143525e+003;-4.226104e-001
2.144489e+003;-4.223853e-001
2.145453e+003;-4.221803e-001
2.146417e+003;-4.219919e-001
2.147382e+003;-4.218063e-001
2.148346e+003;-4.216172e-001
2.149310e+003;-4.214175e-001
2.150274e+003;-4.211866e-001
2.151239e+003;-4.209113e-001
2.152203e+003;-4.206129e-001
2.153167e+003;-4.203290e-001
2.154132e+003;-4.200729e-001
2.155096e+003;-4.198293e-001
2.156060e+003;-4.195818e-001
2.157024e+003;-4.193207e-001
2.157989e+003;-4.190325e-001
2.158953e+003;-4.187127e-001
2.159917e+003;-4.183868e-001
2.160881e+003;-4.180869e-001
2.161845e+003;-4.178095e-001
2.162810e+003;-4.175251e-001
2.163774e+003;-4.172281e-001
2.164738e+003;-4.169429e-001
2.165702e+003;-4.166759e-001
2.166667e+003;-4.163952e-001
2.167631e+003;-4.160747e-001
2.168595e+003;-4.157259e-001
2.169560e+003;-4.153744e-001
2.170524e+003;-4.150322e-001
2.171488e+003;-4.147092e-001
2.172452e+003;-4.144234e-001
2.173417e+003;-4.141732e-001
2.174381e+003;-4.139181e-001
2.175345e+003;-4.136126e-001
2.176309e+003;-4.132501e-001
2.177273e+003;-4.128633e-001
2.178238e+003;-4.124901e-001
2.179202e+003;-4.121484e-001
2.180166e+003;-4.118313e-001
2.181130e+003;-4.115109e-001
2.182095e+003;-4.111572e-001
2.183059e+003;-4.107660e-001
2.184023e+003;-4.103583e-001
2.184988e+003;-4.099482e-001
2.185952e+003;-4.095304e-001
2.186916e+003;-4.091108e-001
2.187880e+003;-4.087234e-001
2.188844e+003;-4.083934e-001
2.189809e+003;-4.080969e-001
2.190773e+003;-4.077820e-001
2.191737e+003;-4.074264e-001
2.192701e+003;-4.070535e-001
2.193666e+003;-4.066947e-001
2.194630e+003;-4.063544e-001
2.195594e+003;-4.060168e-001
2.196558e+003;-4.056735e-001
2.197523e+003;-4.053323e-001
2.198487e+003;-4.050000e-001
2.199451e+003;-4.046603e-001
2.200416e+003;-4.042799e-001
2.201380e+003;-4.038468e-001
2.202344e+003;-4.033955e-001
2.203308e+003;-4.029770e-001
2.204272e+003;-4.026034e-001
2.205237e+003;-4.022389e-001
2.206201e+003;-4.018531e-001
2.207165e+003;-4.014586e-001
2.208129e+003;-4.010822e-001
2.209094e+003;-4.007154e-001
2.210058e+003;-4.003191e-001
2.211022e+003;-3.998722e-001
2.211986e+003;-3.993997e-001
2.212951e+003;-3.989493e-001
2.213915e+003;-3.985505e-001
2.214879e+003;-3.981946e-001
2.215844e+003;-3.978471e-001
2.216808e+003;-3.974763e-001
2.217772e+003;-3.970753e-001
2.218736e+003;-3.966612e-001
2.219700e+003;-3.962564e-001
2.220665e+003;-3.958725e-001
2.221629e+003;-3.955079e-001
2.222593e+003;-3.951459e-001
2.223557e+003;-3.947617e-001
2.224522e+003;-3.943399e-001
2.225486e+003;-3.938920e-001
2.226450e+003;-3.934457e-001
2.227414e+003;-3.930163e-001
2.228379e+003;-3.925972e-001
2.229343e+003;-3.921785e-001
2.230307e+003;-3.917577e-001
2.231271e+003;-3.913303e-001
2.232236e+003;-3.908868e-001
2.233200e+003;-3.904268e-001
2.234164e+003;-3.899635e-001
2.235128e+003;-3.895088e-001
2.236093e+003;-3.890643e-001
2.237057e+003;-3.886317e-001
2.238021e+003;-3.882154e-001
2.238985e+003;-3.878056e-001
2.239950e+003;-3.873802e-001
2.240914e+003;-3.869367e-001
2.241878e+003;-3.865065e-001
2.242842e+003;-3.861141e-001
2.243807e+003;-3.857339e-001
2.244771e+003;-3.853096e-001
2.245735e+003;-3.848198e-001
2.246699e+003;-3.843028e-001
2.247664e+003;-3.838159e-001
2.248628e+003;-3.833861e-001
2.249592e+003;-3.830051e-001
2.250556e+003;-3.826536e-001
2.251521e+003;-3.823180e-001
2.252485e+003;-3.819831e-001
2.253449e+003;-3.816322e-001
2.254413e+003;-3.812593e-001
2.255378e+003;-3.808784e-001
2.256342e+003;-3.805144e-001
2.257306e+003;-3.801773e-001
2.258271e+003;-3.798554e-001
2.259235e+003;-3.795350e-001
2.260199e+003;-3.792218e-001
2.261163e+003;-3.789334e-001
2.262127e+003;-3.786701e-001
2.263092e+003;-3.784045e-001
2.264056e+003;-3.781042e-001
2.265020e+003;-3.777595e-001
2.265984e+003;-3.773849e-001
2.266949e+003;-3.770022e-001
2.267913e+003;-3.766259e-001
2.268877e+003;-3.762602e-001
2.269841e+003;-3.759009e-001
2.270806e+003;-3.755412e-001
2.271770e+003;-3.751783e-001
2.272734e+003;-3.748160e-001
2.273698e+003;-3.744619e-001
2.274663e+003;-3.741195e-001
2.275627e+003;-3.737848e-001
2.276591e+003;-3.734505e-001
2.277555e+003;-3.731150e-001
2.278520e+003;-3.727846e-001
2.279484e+003;-3.724642e-001
2.280448e+003;-3.721462e-001
2.281412e+003;-3.718185e-001
2.282377e+003;-3.714816e-001
2.283341e+003;-3.711493e-001
2.284305e+003;-3.708256e-001
2.285269e+003;-3.704933e-001
2.286234e+003;-3.701311e-001
2.287198e+003;-3.697401e-001
2.288162e+003;-3.693472e-001
2.289126e+003;-3.689898e-001
2.290091e+003;-3.686913e-001
2.291055e+003;-3.684365e-001
2.292019e+003;-3.681741e-001
2.292983e+003;-3.678648e-001
2.293948e+003;-3.675319e-001
2.294912e+003;-3.672391e-001
2.295876e+003;-3.670039e-001
2.296840e+003;-3.667658e-001
2.297805e+003;-3.664665e-001
2.298769e+003;-3.661303e-001
2.299733e+003;-3.658291e-001
2.300697e+003;-3.655817e-001
2.301662e+003;-3.653396e-001
2.302626e+003;-3.650649e-001
2.303590e+003;-3.647783e-001
2.304554e+003;-3.645157e-001
2.305519e+003;-3.642790e-001
2.306483e+003;-3.640447e-001
2.307447e+003;-3.637959e-001
2.308411e+003;-3.635289e-001
2.309375e+003;-3.632502e-001
2.310340e+003;-3.629804e-001
2.311304e+003;-3.627410e-001
2.312268e+003;-3.625237e-001
2.313233e+003;-3.622926e-001
2.314197e+003;-3.620289e-001
2.315161e+003;-3.617533e-001
2.316125e+003;-3.614909e-001
2.317090e+003;-3.612343e-001
2.318054e+003;-3.609543e-001
2.319018e+003;-3.606347e-001
2.319982e+003;-3.602845e-001
2.320947e+003;-3.599324e-001
2.321911e+003;-3.596160e-001
2.322875e+003;-3.593562e-001
2.323839e+003;-3.591291e-001
2.324803e+003;-3.588851e-001
2.325768e+003;-3.586058e-001
2.326732e+003;-3.583201e-001
2.327696e+003;-3.580502e-001
2.328661e+003;-3.577722e-001
2.329625e+003;-3.574537e-001
2.330589e+003;-3.571056e-001
2.331553e+003;-3.567609e-001
2.332518e+003;-3.564199e-001
2.333482e+003;-3.560556e-001
2.334446e+003;-3.556650e-001
2.335410e+003;-3.552772e-001
2.336375e+003;-3.549101e-001
2.337339e+003;-3.545501e-001
2.338303e+003;-3.541787e-001
2.339267e+003;-3.537944e-001
2.340231e+003;-3.533988e-001
2.341196e+003;-3.529813e-001
2.342160e+003;-3.525316e-001
2.343124e+003;-3.520478e-001
2.344089e+003;-3.515284e-001
2.345053e+003;-3.509759e-001
2.346017e+003;-3.504155e-001
2.346981e+003;-3.498978e-001
2.347946e+003;-3.494664e-001
2.348910e+003;-3.491313e-001
2.349874e+003;-3.488753e-001
2.350838e+003;-3.486674e-001
2.351802e+003;-3.484607e-001
2.352767e+003;-3.481992e-001
2.353731e+003;-3.478546e-001
2.354695e+003;-3.474565e-001
2.355659e+003;-3.470664e-001
2.356624e+003;-3.467147e-001
2.357588e+003;-3.463773e-001
2.358552e+003;-3.460133e-001
2.359517e+003;-3.456094e-001
2.360481e+003;-3.451777e-001
2.361445e+003;-3.447243e-001
2.362409e+003;-3.442452e-001
2.363374e+003;-3.437507e-001
2.364338e+003;-3.432700e-001
2.365302e+003;-3.428180e-001
2.366266e+003;-3.423691e-001
2.367230e+003;-3.418826e-001
2.368195e+003;-3.413508e-001
2.369159e+003;-3.408079e-001
2.370123e+003;-3.402904e-001
2.371087e+003;-3.398008e-001
2.372052e+003;-3.393126e-001
2.373016e+003;-3.388050e-001
2.373980e+003;-3.382852e-001
2.374945e+003;-3.377857e-001
2.375909e+003;-3.373360e-001
2.376873e+003;-3.369335e-001
2.377837e+003;-3.365381e-001
2.378802e+003;-3.361023e-001
2.379766e+003;-3.356107e-001
2.380730e+003;-3.350856e-001
2.381694e+003;-3.345583e-001
2.382658e+003;-3.340437e-001
2.383623e+003;-3.335429e-001
2.384587e+003;-3.330582e-001
2.385551e+003;-3.325945e-001
2.386515e+003;-3.321519e-001
2.387480e+003;-3.317237e-001
2.388444e+003;-3.312999e-001
2.389408e+003;-3.308737e-001
2.390373e+003;-3.304476e-001
2.391337e+003;-3.300293e-001
2.392301e+003;-3.296121e-001
2.393265e+003;-3.291636e-001
2.394229e+003;-3.286546e-001
2.395194e+003;-3.281036e-001
2.396158e+003;-3.275715e-001
2.397122e+003;-3.270966e-001
2.398086e+003;-3.266531e-001
2.399051e+003;-3.261914e-001
2.400015e+003;-3.257084e-001
2.400979e+003;-3.252472e-001
2.401943e+003;-3.248318e-001
2.402908e+003;-3.244327e-001
2.403872e+003;-3.240067e-001
2.404836e+003;-3.235440e-001
2.405801e+003;-3.230566e-001
2.406765e+003;-3.225455e-001
2.407729e+003;-3.220057e-001
2.408693e+003;-3.214565e-001
2.409657e+003;-3.209341e-001
2.410622e+003;-3.204496e-001
2.411586e+003;-3.199789e-001
2.412550e+003;-3.195077e-001
2.413514e+003;-3.190598e-001
2.414479e+003;-3.186623e-001
2.415443e+003;-3.182973e-001
2.416407e+003;-3.179125e-001
2.417371e+003;-3.174776e-001
2.418336e+003;-3.170052e-001
2.419300e+003;-3.165140e-001
2.420264e+003;-3.159969e-001
2.421229e+003;-3.154386e-001
2.422193e+003;-3.148504e-001
2.423157e+003;-3.142705e-001
2.424121e+003;-3.137357e-001
2.425085e+003;-3.132586e-001
2.426050e+003;-3.128282e-001
2.427014e+003;-3.124205e-001
2.427978e+003;-3.120136e-001
2.428942e+003;-3.115984e-001
2.429907e+003;-3.111734e-001
2.430871e+003;-3.107245e-001
2.431835e+003;-3.102248e-001
2.432799e+003;-3.096667e-001
2.433764e+003;-3.090866e-001
2.434728e+003;-3.085411e-001
2.435692e+003;-3.080529e-001
2.436656e+003;-3.075925e-001
2.437621e+003;-3.071163e-001
2.438585e+003;-3.066202e-001
2.439549e+003;-3.061476e-001
2.440513e+003;-3.057424e-001
2.441478e+003;-3.053910e-001
2.442442e+003;-3.050207e-001
2.443406e+003;-3.045631e-001
2.444370e+003;-3.040179e-001
2.445335e+003;-3.034449e-001
2.446299e+003;-3.028966e-001
2.447263e+003;-3.023776e-001
2.448227e+003;-3.018741e-001
2.449192e+003;-3.013925e-001
2.450156e+003;-3.009476e-001
2.451120e+003;-3.005309e-001
2.452084e+003;-3.001193e-001
2.453049e+003;-2.997091e-001
2.454013e+003;-2.993113e-001
2.454977e+003;-2.989151e-001
2.455941e+003;-2.984794e-001
2.456906e+003;-2.979757e-001
2.457870e+003;-2.974220e-001
2.458834e+003;-2.968652e-001
2.459798e+003;-2.963371e-001
2.460763e+003;-2.958319e-001
2.461727e+003;-2.953195e-001
2.462691e+003;-2.947796e-001
2.463655e+003;-2.942289e-001
2.464620e+003;-2.937136e-001
2.465584e+003;-2.932632e-001
2.466548e+003;-2.928526e-001
2.467512e+003;-2.924239e-001
2.468477e+003;-2.919460e-001
2.469441e+003;-2.914349e-001
2.470405e+003;-2.909167e-001
2.471369e+003;-2.903908e-001
2.472333e+003;-2.898516e-001
2.473298e+003;-2.893242e-001
2.474262e+003;-2.888515e-001
2.475226e+003;-2.884417e-001
2.476191e+003;-2.880493e-001
2.477155e+003;-2.876198e-001
2.478119e+003;-2.871418e-001
2.479083e+003;-2.866481e-001
2.480048e+003;-2.861741e-001
2.481012e+003;-2.857274e-001
2.481976e+003;-2.852923e-001
2.482940e+003;-2.848462e-001
2.483905e+003;-2.843691e-001
2.484869e+003;-2.838546e-001
2.485833e+003;-2.833226e-001
2.486797e+003;-2.828129e-001
2.487761e+003;-2.823528e-001
2.488726e+003;-2.819346e-001
2.489690e+003;-2.815339e-001
2.490654e+003;-2.811377e-001
2.491619e+003;-2.807400e-001
2.492583e+003;-2.803191e-001
2.493547e+003;-2.798454e-001
2.494511e+003;-2.793163e-001
2.495476e+003;-2.787619e-001
2.496440e+003;-2.782102e-001
2.497404e+003;-2.776667e-001
2.498368e+003;-2.771351e-001
2.499333e+003;-2.766317e-001
2.500297e+003;-2.761645e-001
2.501261e+003;-2.757141e-001
2.502225e+003;-2.752555e-001
2.503189e+003;-2.747880e-001
2.504154e+003;-2.743287e-001
2.505118e+003;-2.738838e-001
2.506082e+003;-2.734404e-001
2.507047e+003;-2.729761e-001
2.508011e+003;-2.724730e-001
2.508975e+003;-2.719347e-001
2.509939e+003;-2.714000e-001
2.510904e+003;-2.709173e-001
2.511868e+003;-2.704890e-001
2.512832e+003;-2.700581e-001
2.513796e+003;-2.695712e-001
2.514760e+003;-2.690376e-001
2.515725e+003;-2.685052e-001
2.516689e+003;-2.679954e-001
2.517653e+003;-2.674946e-001
2.518617e+003;-2.669966e-001
2.519582e+003;-2.665175e-001
2.520546e+003;-2.660671e-001
2.521510e+003;-2.656372e-001
2.522475e+003;-2.652234e-001
2.523439e+003;-2.648293e-001
2.524403e+003;-2.644422e-001
2.525367e+003;-2.640278e-001
2.526332e+003;-2.635643e-001
2.527296e+003;-2.630668e-001
2.528260e+003;-2.625676e-001
2.529224e+003;-2.620844e-001
2.530188e+003;-2.616127e-001
2.531153e+003;-2.611393e-001
2.532117e+003;-2.606540e-001
2.533081e+003;-2.601568e-001
2.534045e+003;-2.596554e-001
2.535010e+003;-2.591546e-001
2.535974e+003;-2.586546e-001
2.536938e+003;-2.581652e-001
2.537903e+003;-2.577077e-001
2.538867e+003;-2.572797e-001
2.539831e+003;-2.568323e-001
2.540795e+003;-2.563096e-001
2.541760e+003;-2.557147e-001
2.542724e+003;-2.551157e-001
2.543688e+003;-2.545798e-001
2.544652e+003;-2.541202e-001
2.545616e+003;-2.537048e-001
2.546581e+003;-2.532902e-001
2.547545e+003;-2.528418e-001
2.548509e+003;-2.523477e-001
2.549473e+003;-2.518298e-001
2.550438e+003;-2.513272e-001
2.551402e+003;-2.508505e-001
2.552366e+003;-2.503683e-001
2.553331e+003;-2.498520e-001
2.554295e+003;-2.493221e-001
2.555259e+003;-2.488298e-001
2.556223e+003;-2.483974e-001
2.557188e+003;-2.479937e-001
2.558152e+003;-2.475731e-001
2.559116e+003;-2.471241e-001
2.560080e+003;-2.466716e-001
2.561044e+003;-2.462344e-001
2.562009e+003;-2.457983e-001
2.562973e+003;-2.453403e-001
2.563937e+003;-2.448683e-001
2.564901e+003;-2.444178e-001
2.565866e+003;-2.440062e-001
2.566830e+003;-2.436087e-001
2.567794e+003;-2.431877e-001
2.568759e+003;-2.427260e-001
2.569723e+003;-2.422225e-001
2.570687e+003;-2.416797e-001
2.571651e+003;-2.411189e-001
2.572615e+003;-2.405891e-001
2.573580e+003;-2.401287e-001
2.574544e+003;-2.397209e-001
2.575508e+003;-2.393111e-001
2.576472e+003;-2.388621e-001
2.577437e+003;-2.383732e-001
2.578401e+003;-2.378544e-001
2.579365e+003;-2.373156e-001
2.580329e+003;-2.367758e-001
2.581294e+003;-2.362529e-001
2.582258e+003;-2.357398e-001
2.583222e+003;-2.352168e-001
2.584187e+003;-2.346906e-001
2.585151e+003;-2.341915e-001
2.586115e+003;-2.337245e-001
2.587079e+003;-2.332529e-001
2.588043e+003;-2.327446e-001
2.589008e+003;-2.322133e-001
2.589972e+003;-2.317011e-001
2.590936e+003;-2.312364e-001
2.591900e+003;-2.308162e-001
2.592865e+003;-2.304111e-001
2.593829e+003;-2.299808e-001
2.594793e+003;-2.295004e-001
2.595757e+003;-2.289879e-001
2.596722e+003;-2.284906e-001
2.597686e+003;-2.280369e-001
2.598650e+003;-2.276113e-001
2.599615e+003;-2.271785e-001
2.600579e+003;-2.267214e-001
2.601543e+003;-2.262472e-001
2.602507e+003;-2.257772e-001
2.603471e+003;-2.253301e-001
2.604436e+003;-2.249035e-001
2.605400e+003;-2.244709e-001
2.606364e+003;-2.240096e-001
2.607328e+003;-2.235274e-001
2.608293e+003;-2.230430e-001
2.609257e+003;-2.225488e-001
2.610221e+003;-2.220236e-001
2.611185e+003;-2.214807e-001
2.612150e+003;-2.209623e-001
2.613114e+003;-2.204778e-001
2.614078e+003;-2.199841e-001
2.615042e+003;-2.194458e-001
2.616007e+003;-2.188808e-001
2.616971e+003;-2.183298e-001
2.617935e+003;-2.178071e-001
2.618899e+003;-2.173055e-001
2.619864e+003;-2.168193e-001
2.620828e+003;-2.163361e-001
2.621792e+003;-2.158275e-001
2.622756e+003;-2.152796e-001
2.623721e+003;-2.147206e-001
2.624685e+003;-2.141932e-001
2.625649e+003;-2.137083e-001
2.626613e+003;-2.132442e-001
2.627578e+003;-2.127768e-001
2.628542e+003;-2.122916e-001
2.629506e+003;-2.117811e-001
2.630470e+003;-2.112543e-001
2.631435e+003;-2.107385e-001
2.632399e+003;-2.102515e-001
2.633363e+003;-2.097793e-001
2.634327e+003;-2.092955e-001
2.635292e+003;-2.087905e-001
2.636256e+003;-2.082677e-001
2.637220e+003;-2.077305e-001
2.638184e+003;-2.071957e-001
2.639149e+003;-2.067011e-001
2.640113e+003;-2.062682e-001
2.641077e+003;-2.058628e-001
2.642041e+003;-2.054238e-001
2.643006e+003;-2.049262e-001
2.643970e+003;-2.043947e-001
2.644934e+003;-2.038611e-001
2.645898e+003;-2.033350e-001
2.646863e+003;-2.028134e-001
2.647827e+003;-2.022921e-001
2.648791e+003;-2.017671e-001
2.649755e+003;-2.012420e-001
2.650720e+003;-2.007333e-001
2.651684e+003;-2.002504e-001
2.652648e+003;-1.997692e-001
2.653612e+003;-1.992492e-001
2.654577e+003;-1.986770e-001
2.655541e+003;-1.980775e-001
2.656505e+003;-1.974842e-001
2.657469e+003;-1.969192e-001
2.658434e+003;-1.963949e-001
2.659398e+003;-1.959078e-001
2.660362e+003;-1.954247e-001
2.661326e+003;-1.949024e-001
2.662291e+003;-1.943340e-001
2.663255e+003;-1.937535e-001
2.664219e+003;-1.931892e-001
2.665183e+003;-1.926319e-001
2.666148e+003;-1.920630e-001
2.667112e+003;-1.914914e-001
2.668076e+003;-1.909430e-001
2.669040e+003;-1.904232e-001
2.670005e+003;-1.899108e-001
2.670969e+003;-1.893889e-001
2.671933e+003;-1.888638e-001
2.672897e+003;-1.883516e-001
2.673862e+003;-1.878521e-001
2.674826e+003;-1.873419e-001
2.675790e+003;-1.867946e-001
2.676754e+003;-1.862086e-001
2.677719e+003;-1.856158e-001
2.678683e+003;-1.850570e-001
2.679647e+003;-1.845492e-001
2.680611e+003;-1.840743e-001
2.681576e+003;-1.835988e-001
2.682540e+003;-1.830983e-001
2.683504e+003;-1.825697e-001
2.684468e+003;-1.820298e-001
2.685433e+003;-1.815066e-001
2.686397e+003;-1.810188e-001
2.687361e+003;-1.805576e-001
2.688325e+003;-1.800877e-001
2.689290e+003;-1.795742e-001
2.690254e+003;-1.790112e-001
2.691218e+003;-1.784244e-001
2.692182e+003;-1.778462e-001
2.693146e+003;-1.772843e-001
2.694111e+003;-1.767163e-001
2.695075e+003;-1.761221e-001
2.696039e+003;-1.755145e-001
2.697004e+003;-1.749277e-001
2.697968e+003;-1.743682e-001
2.698932e+003;-1.737995e-001
2.699896e+003;-1.731856e-001
2.700861e+003;-1.725399e-001
2.701825e+003;-1.719152e-001
2.702789e+003;-1.713494e-001
2.703753e+003;-1.708364e-001
2.704718e+003;-1.703385e-001
2.705682e+003;-1.698111e-001
2.706646e+003;-1.692205e-001
2.707610e+003;-1.685629e-001
2.708574e+003;-1.678769e-001
2.709539e+003;-1.672181e-001
2.710503e+003;-1.666114e-001
2.711467e+003;-1.660362e-001
2.712432e+003;-1.654630e-001
2.713396e+003;-1.648918e-001
2.714360e+003;-1.643457e-001
2.715324e+003;-1.638354e-001
2.716289e+003;-1.633410e-001
2.717253e+003;-1.628287e-001
2.718217e+003;-1.622767e-001
2.719181e+003;-1.616873e-001
2.720146e+003;-1.610769e-001
2.721110e+003;-1.604571e-001
2.722074e+003;-1.598282e-001
2.723038e+003;-1.591924e-001
2.724002e+003;-1.585688e-001
2.724967e+003;-1.579838e-001
2.725931e+003;-1.574470e-001
2.726895e+003;-1.569399e-001
2.727860e+003;-1.564295e-001
2.728824e+003;-1.558895e-001
2.729788e+003;-1.553102e-001
2.730752e+003;-1.546994e-001
2.731717e+003;-1.540733e-001
2.732681e+003;-1.534419e-001
2.733645e+003;-1.528026e-001
2.734609e+003;-1.521524e-001
2.735573e+003;-1.515007e-001
2.736538e+003;-1.508589e-001
2.737502e+003;-1.502218e-001
2.738466e+003;-1.495748e-001
2.739430e+003;-1.489199e-001
2.740395e+003;-1.482782e-001
2.741359e+003;-1.476572e-001
2.742323e+003;-1.470330e-001
2.743288e+003;-1.463812e-001
2.744252e+003;-1.457188e-001
2.745216e+003;-1.450982e-001
2.746180e+003;-1.445511e-001
2.747145e+003;-1.440433e-001
2.748109e+003;-1.434927e-001
2.749073e+003;-1.428382e-001
2.750037e+003;-1.420910e-001
2.751001e+003;-1.413172e-001
2.751966e+003;-1.405705e-001
2.752930e+003;-1.398526e-001
2.753894e+003;-1.391441e-001
2.754858e+003;-1.384529e-001
2.755823e+003;-1.378089e-001
2.756787e+003;-1.372123e-001
2.757751e+003;-1.366203e-001
2.758716e+003;-1.359954e-001
2.759680e+003;-1.353490e-001
2.760644e+003;-1.347182e-001
2.761608e+003;-1.341099e-001
2.762573e+003;-1.334890e-001
2.763537e+003;-1.328169e-001
2.764501e+003;-1.320880e-001
2.765465e+003;-1.313315e-001
2.766429e+003;-1.305858e-001
2.767394e+003;-1.298742e-001
2.768358e+003;-1.291931e-001
2.769322e+003;-1.285259e-001
2.770286e+003;-1.278701e-001
2.771251e+003;-1.272407e-001
2.772215e+003;-1.266414e-001
2.773179e+003;-1.260427e-001
2.774144e+003;-1.254068e-001
2.775108e+003;-1.247303e-001
2.776072e+003;-1.240440e-001
2.777036e+003;-1.233732e-001
2.778000e+003;-1.227092e-001
2.778965e+003;-1.220265e-001
2.779929e+003;-1.213104e-001
2.780893e+003;-1.205653e-001
2.781857e+003;-1.198086e-001
2.782822e+003;-1.190621e-001
2.783786e+003;-1.183408e-001
2.784750e+003;-1.176433e-001
2.785714e+003;-1.169561e-001
2.786679e+003;-1.162682e-001
2.787643e+003;-1.155751e-001
2.788607e+003;-1.148681e-001
2.789572e+003;-1.141301e-001
2.790536e+003;-1.133512e-001
2.791500e+003;-1.125407e-001
2.792464e+003;-1.117173e-001
2.793428e+003;-1.108951e-001
2.794393e+003;-1.100849e-001
2.795357e+003;-1.093032e-001
2.796321e+003;-1.085662e-001
2.797285e+003;-1.078731e-001
2.798250e+003;-1.072013e-001
2.799214e+003;-1.065206e-001
2.800178e+003;-1.058147e-001
2.801142e+003;-1.050889e-001
2.802107e+003;-1.043581e-001
2.803071e+003;-1.036250e-001
2.804035e+003;-1.028764e-001
2.805000e+003;-1.021059e-001
2.805964e+003;-1.013319e-001
2.806928e+003;-1.005833e-001
2.807892e+003;-9.986661e-002
2.808856e+003;-9.916279e-002
2.809821e+003;-9.845404e-002
2.810785e+003;-9.774027e-002
2.811749e+003;-9.702861e-002
2.812713e+003;-9.632293e-002
2.813678e+003;-9.562870e-002
2.814642e+003;-9.494981e-002
2.815606e+003;-9.427154e-002
2.816570e+003;-9.356529e-002
2.817535e+003;-9.282414e-002
2.818499e+003;-9.207642e-002
2.819463e+003;-9.134400e-002
2.820427e+003;-9.060597e-002
2.821392e+003;-8.982898e-002
2.822356e+003;-8.902617e-002
2.823320e+003;-8.825273e-002
2.824284e+003;-8.754032e-002
2.825249e+003;-8.686288e-002
2.826213e+003;-8.617568e-002
2.827177e+003;-8.546527e-002
2.828141e+003;-8.474434e-002
2.829106e+003;-8.401823e-002
2.830070e+003;-8.327963e-002
2.831034e+003;-8.252811e-002
2.831998e+003;-8.177668e-002
2.832963e+003;-8.103552e-002
2.833927e+003;-8.030287e-002
2.834891e+003;-7.957128e-002
2.835855e+003;-7.883657e-002
2.836820e+003;-7.809793e-002
2.837784e+003;-7.735745e-002
2.838748e+003;-7.662229e-002
2.839712e+003;-7.590455e-002
2.840677e+003;-7.521622e-002
2.841641e+003;-7.456394e-002
2.842605e+003;-7.394562e-002
2.843569e+003;-7.334751e-002
2.844534e+003;-7.274208e-002
2.845498e+003;-7.209438e-002
2.846462e+003;-7.138308e-002
2.847426e+003;-7.062840e-002
2.848391e+003;-6.989186e-002
2.849355e+003;-6.923127e-002
2.850319e+003;-6.864106e-002
2.851283e+003;-6.804622e-002
2.852248e+003;-6.737006e-002
2.853212e+003;-6.660450e-002
2.854176e+003;-6.580201e-002
2.855140e+003;-6.500236e-002
2.856104e+003;-6.418806e-002
2.857069e+003;-6.331960e-002
2.858033e+003;-6.239536e-002
2.858997e+003;-6.146087e-002
2.859962e+003;-6.056114e-002
2.860926e+003;-5.970126e-002
2.861890e+003;-5.885326e-002
2.862854e+003;-5.799530e-002
2.863819e+003;-5.713693e-002
2.864783e+003;-5.631042e-002
2.865747e+003;-5.553941e-002
2.866711e+003;-5.481445e-002
2.867676e+003;-5.409596e-002
2.868640e+003;-5.334420e-002
2.869604e+003;-5.254803e-002
2.870568e+003;-5.172747e-002
2.871532e+003;-5.090823e-002
2.872497e+003;-5.009749e-002
2.873461e+003;-4.928644e-002
2.874425e+003;-4.847521e-002
2.875390e+003;-4.768420e-002
2.876354e+003;-4.693148e-002
2.877318e+003;-4.620360e-002
2.878282e+003;-4.546003e-002
2.879247e+003;-4.466924e-002
2.880211e+003;-4.383438e-002
2.881175e+003;-4.298412e-002
2.882139e+003;-4.214604e-002
2.883104e+003;-4.133123e-002
2.884068e+003;-4.053351e-002
2.885032e+003;-3.974180e-002
2.885996e+003;-3.895929e-002
2.886960e+003;-3.820633e-002
2.887925e+003;-3.748978e-002
2.888889e+003;-3.677293e-002
2.889853e+003;-3.600165e-002
2.890818e+003;-3.517100e-002
2.891782e+003;-3.434069e-002
2.892746e+003;-3.356642e-002
2.893710e+003;-3.283538e-002
2.894675e+003;-3.209206e-002
2.895639e+003;-3.131050e-002
2.896603e+003;-3.051264e-002
2.897567e+003;-2.972406e-002
2.898531e+003;-2.894783e-002
2.899496e+003;-2.818161e-002
2.900460e+003;-2.742794e-002
2.901424e+003;-2.667988e-002
2.902388e+003;-2.592016e-002
2.903353e+003;-2.514804e-002
2.904317e+003;-2.438451e-002
2.905281e+003;-2.363887e-002
2.906246e+003;-2.288714e-002
2.907210e+003;-2.209981e-002
2.908174e+003;-2.128244e-002
2.909138e+003;-2.047538e-002
2.910103e+003;-1.971793e-002
2.911067e+003;-1.901986e-002
2.912031e+003;-1.835884e-002
2.912995e+003;-1.769946e-002
2.913959e+003;-1.702059e-002
2.914924e+003;-1.633049e-002
2.915888e+003;-1.565261e-002
2.916852e+003;-1.499355e-002
2.917816e+003;-1.433115e-002
2.918781e+003;-1.363271e-002
2.919745e+003;-1.288023e-002
2.920709e+003;-1.208130e-002
2.921674e+003;-1.126579e-002
2.922638e+003;-1.046738e-002
2.923602e+003;-9.691832e-003
2.924566e+003;-8.902885e-003
2.925531e+003;-8.053994e-003
2.926495e+003;-7.136301e-003
2.927459e+003;-6.182597e-003
2.928423e+003;-5.223814e-003
2.929387e+003;-4.262483e-003
2.930352e+003;-3.290141e-003
2.931316e+003;-2.311860e-003
2.932280e+003;-1.340025e-003
2.933244e+003;-3.823310e-004
2.934209e+003;5.518666e-004
2.935173e+003;1.449379e-003
2.936137e+003;2.315605e-003
2.937102e+003;3.191839e-003
2.938066e+003;4.125001e-003
2.939030e+003;5.114918e-003
2.939994e+003;6.104408e-003
2.940958e+003;7.032238e-003
2.941923e+003;7.895983e-003
2.942887e+003;8.751813e-003
2.943851e+003;9.645751e-003
2.944815e+003;1.055287e-002
2.945780e+003;1.140307e-002
2.946744e+003;1.217353e-002
2.947708e+003;1.292723e-002
2.948672e+003;1.373876e-002
2.949637e+003;1.459931e-002
2.950601e+003;1.543365e-002
2.951565e+003;1.620672e-002
2.952530e+003;1.697097e-002
2.953494e+003;1.779383e-002
2.954458e+003;1.867204e-002
2.955422e+003;1.954451e-002
2.956386e+003;2.037140e-002
2.957351e+003;2.116928e-002
2.958315e+003;2.197230e-002
2.959279e+003;2.278350e-002
2.960243e+003;2.356880e-002
2.961208e+003;2.428974e-002
2.962172e+003;2.493857e-002
2.963136e+003;2.554676e-002
2.964100e+003;2.616362e-002
2.965065e+003;2.682682e-002
2.966029e+003;2.755708e-002
2.966993e+003;2.836910e-002
2.967958e+003;2.927111e-002
2.968922e+003;3.025015e-002
2.969886e+003;3.127018e-002
2.970850e+003;3.229304e-002
2.971814e+003;3.329661e-002
2.972779e+003;3.427137e-002
2.973743e+003;3.521034e-002
2.974707e+003;3.610212e-002
2.975671e+003;3.693452e-002
2.976636e+003;3.771188e-002
2.977600e+003;3.847665e-002
2.978564e+003;3.929189e-002
2.979528e+003;4.017920e-002
2.980493e+003;4.108610e-002
2.981457e+003;4.194373e-002
2.982421e+003;4.274917e-002
2.983385e+003;4.355602e-002
2.984350e+003;4.438959e-002
2.985314e+003;4.521701e-002
2.986278e+003;4.600713e-002
2.987242e+003;4.677007e-002
2.988207e+003;4.751575e-002
2.989171e+003;4.822295e-002
2.990135e+003;4.888873e-002
2.991099e+003;4.957607e-002
2.992064e+003;5.036197e-002
2.993028e+003;5.124999e-002
2.993992e+003;5.216860e-002
2.994956e+003;5.304827e-002
2.995921e+003;5.386824e-002
2.996885e+003;5.463907e-002
2.997849e+003;5.538063e-002
2.998813e+003;5.612301e-002
2.999778e+003;5.689503e-002
3.000742e+003;5.770012e-002
3.001706e+003;5.851828e-002
3.002670e+003;5.933461e-002
3.003635e+003;6.014824e-002
3.004599e+003;6.095669e-002
3.005563e+003;6.175328e-002
3.006527e+003;6.254464e-002
3.007492e+003;6.334683e-002
3.008456e+003;6.415716e-002
3.009420e+003;6.494799e-002
3.010384e+003;6.569839e-002
3.011349e+003;6.641925e-002
3.012313e+003;6.713817e-002
3.013277e+003;6.787057e-002
3.014241e+003;6.861670e-002
3.015206e+003;6.938300e-002
3.016170e+003;7.019237e-002
3.017134e+003;7.106986e-002
3.018098e+003;7.201416e-002
3.019063e+003;7.298733e-002
3.020027e+003;7.393845e-002
3.020991e+003;7.484331e-002
3.021955e+003;7.571787e-002
3.022920e+003;7.659412e-002
3.023884e+003;7.749024e-002
3.024848e+003;7.840631e-002
3.025812e+003;7.933088e-002
3.026777e+003;8.024554e-002
3.027741e+003;8.113558e-002
3.028705e+003;8.201103e-002
3.029669e+003;8.290553e-002
3.030634e+003;8.383524e-002
3.031598e+003;8.477330e-002
3.032562e+003;8.568402e-002
3.033526e+003;8.657262e-002
3.034491e+003;8.747195e-002
3.035455e+003;8.838518e-002
3.036419e+003;8.927555e-002
3.037383e+003;9.011905e-002
3.038348e+003;9.093618e-002
3.039312e+003;9.175374e-002
3.040276e+003;9.256320e-002
3.041240e+003;9.334439e-002
3.042205e+003;9.411222e-002
3.043169e+003;9.490787e-002
3.044133e+003;9.574542e-002
3.045097e+003;9.659564e-002
3.046062e+003;9.743185e-002
3.047026e+003;9.826619e-002
3.047990e+003;9.912503e-002
3.048954e+003;1.000047e-001
3.049919e+003;1.008707e-001
3.050883e+003;1.017009e-001
3.051847e+003;1.025087e-001
3.052811e+003;1.033191e-001
3.053776e+003;1.041367e-001
3.054740e+003;1.049493e-001
3.055704e+003;1.057552e-001
3.056668e+003;1.065727e-001
3.057633e+003;1.074166e-001
3.058597e+003;1.082767e-001
3.059561e+003;1.091314e-001
3.060525e+003;1.099799e-001
3.061490e+003;1.108433e-001
3.062454e+003;1.117264e-001
3.063418e+003;1.125891e-001
3.064382e+003;1.133860e-001
3.065347e+003;1.141319e-001
3.066311e+003;1.149027e-001
3.067275e+003;1.157501e-001
3.068239e+003;1.166351e-001
3.069204e+003;1.174781e-001
3.070168e+003;1.182626e-001
3.071132e+003;1.190469e-001
3.072096e+003;1.198705e-001
3.073061e+003;1.206981e-001
3.074025e+003;1.214850e-001
3.074989e+003;1.222603e-001
3.075953e+003;1.231002e-001
3.076917e+003;1.240351e-001
3.077882e+003;1.250212e-001
3.078846e+003;1.259990e-001
3.079810e+003;1.269387e-001
3.080775e+003;1.278259e-001
3.081739e+003;1.286512e-001
3.082703e+003;1.294378e-001
3.083667e+003;1.302541e-001
3.084632e+003;1.311614e-001
3.085596e+003;1.321522e-001
3.086560e+003;1.331548e-001
3.087524e+003;1.340993e-001
3.088489e+003;1.349737e-001
3.089453e+003;1.358187e-001
3.090417e+003;1.366775e-001
3.091381e+003;1.375566e-001
3.092345e+003;1.384360e-001
3.093310e+003;1.393142e-001
3.094274e+003;1.402234e-001
3.095238e+003;1.411844e-001
3.096203e+003;1.421641e-001
3.097167e+003;1.431020e-001
3.098131e+003;1.439821e-001
3.099095e+003;1.448462e-001
3.100060e+003;1.457314e-001
3.101024e+003;1.466191e-001
3.101988e+003;1.474653e-001
3.102952e+003;1.482664e-001
3.103917e+003;1.490691e-001
3.104881e+003;1.499188e-001
3.105845e+003;1.508128e-001
3.106809e+003;1.517110e-001
3.107773e+003;1.525805e-001
3.108738e+003;1.534227e-001
3.109702e+003;1.542626e-001
3.110666e+003;1.551230e-001
3.111631e+003;1.560168e-001
3.112595e+003;1.569521e-001
3.113559e+003;1.579285e-001
3.114523e+003;1.589235e-001
3.115488e+003;1.599000e-001
3.116452e+003;1.608356e-001
3.117416e+003;1.617380e-001
3.118380e+003;1.626275e-001
3.119344e+003;1.635225e-001
3.120309e+003;1.644459e-001
3.121273e+003;1.654229e-001
3.122237e+003;1.664455e-001
3.123201e+003;1.674567e-001
3.124166e+003;1.683988e-001
3.125130e+003;1.692755e-001
3.126094e+003;1.701422e-001
3.127059e+003;1.710421e-001
3.128023e+003;1.719722e-001
3.128987e+003;1.729112e-001
3.129951e+003;1.738507e-001
3.130916e+003;1.747921e-001
3.131880e+003;1.757359e-001
3.132844e+003;1.766831e-001
3.133808e+003;1.776353e-001
3.134772e+003;1.785848e-001
3.135737e+003;1.795174e-001
3.136701e+003;1.804278e-001
3.137665e+003;1.813268e-001
3.138629e+003;1.822328e-001
3.139594e+003;1.831629e-001
3.140558e+003;1.841254e-001
3.141522e+003;1.851117e-001
3.142487e+003;1.860977e-001
3.143451e+003;1.870605e-001
3.144415e+003;1.879908e-001
3.145379e+003;1.888846e-001
3.146344e+003;1.897447e-001
3.147308e+003;1.906015e-001
3.148272e+003;1.915086e-001
3.149236e+003;1.924932e-001
3.150200e+003;1.935242e-001
3.151165e+003;1.945464e-001
3.152129e+003;1.955346e-001
3.153093e+003;1.964951e-001
3.154057e+003;1.974400e-001
3.155022e+003;1.983859e-001
3.155986e+003;1.993591e-001
3.156950e+003;2.003615e-001
3.157915e+003;2.013525e-001
3.158879e+003;2.023036e-001
3.159843e+003;2.032530e-001
3.160807e+003;2.042567e-001
3.161771e+003;2.052985e-001
3.162736e+003;2.063032e-001
3.163700e+003;2.072440e-001
3.164664e+003;2.081784e-001
3.165628e+003;2.091663e-001
3.166593e+003;2.102021e-001
3.167557e+003;2.112441e-001
3.168521e+003;2.122683e-001
3.169485e+003;2.132659e-001
3.170450e+003;2.142279e-001
3.171414e+003;2.151608e-001
3.172378e+003;2.160954e-001
3.173343e+003;2.170559e-001
3.174307e+003;2.180398e-001
3.175271e+003;2.190373e-001
3.176235e+003;2.200510e-001
3.177199e+003;2.210800e-001
3.178164e+003;2.221117e-001
3.179128e+003;2.231416e-001
3.180092e+003;2.241798e-001
3.181056e+003;2.252228e-001
3.182021e+003;2.262439e-001
3.182985e+003;2.272242e-001
3.183949e+003;2.281795e-001
3.184913e+003;2.291449e-001
3.185878e+003;2.301496e-001
3.186842e+003;2.312028e-001
3.187806e+003;2.322814e-001
3.188771e+003;2.333325e-001
3.189735e+003;2.343177e-001
3.190699e+003;2.352608e-001
3.191663e+003;2.362251e-001
3.192627e+003;2.372389e-001
3.193592e+003;2.382784e-001
3.194556e+003;2.393246e-001
3.195520e+003;2.403904e-001
3.196484e+003;2.414785e-001
3.197449e+003;2.425534e-001
3.198413e+003;2.435792e-001
3.199377e+003;2.445581e-001
3.200341e+003;2.455086e-001
3.201306e+003;2.464386e-001
3.202270e+003;2.473554e-001
3.203234e+003;2.482770e-001
3.204198e+003;2.492085e-001
3.205163e+003;2.501337e-001
3.206127e+003;2.510436e-001
3.207091e+003;2.519519e-001
3.208055e+003;2.528669e-001
3.209020e+003;2.537777e-001
3.209984e+003;2.546861e-001
3.210948e+003;2.556231e-001
3.211912e+003;2.566131e-001
3.212877e+003;2.576407e-001
3.213841e+003;2.586713e-001
3.214805e+003;2.596791e-001
3.215769e+003;2.606476e-001
3.216734e+003;2.615726e-001
3.217698e+003;2.624864e-001
3.218662e+003;2.634426e-001
3.219626e+003;2.644525e-001
3.220591e+003;2.654605e-001
3.221555e+003;2.664129e-001
3.222519e+003;2.673273e-001
3.223483e+003;2.682672e-001
3.224448e+003;2.692664e-001
3.225412e+003;2.703062e-001
3.226376e+003;2.713557e-001
3.227340e+003;2.724034e-001
3.228305e+003;2.734511e-001
3.229269e+003;2.745005e-001
3.230233e+003;2.755479e-001
3.231197e+003;2.765913e-001
3.232162e+003;2.776391e-001
3.233126e+003;2.787051e-001
3.234090e+003;2.797814e-001
3.235054e+003;2.808238e-001
3.236019e+003;2.817933e-001
3.236983e+003;2.827089e-001
3.237947e+003;2.836348e-001
3.238911e+003;2.846125e-001
3.239875e+003;2.856312e-001
3.240840e+003;2.866639e-001
3.241804e+003;2.876969e-001
3.242768e+003;2.887201e-001
3.243733e+003;2.897246e-001
3.244697e+003;2.907208e-001
3.245661e+003;2.917280e-001
3.246625e+003;2.927401e-001
3.247590e+003;2.937336e-001
3.248554e+003;2.947152e-001
3.249518e+003;2.957233e-001
3.250482e+003;2.967752e-001
3.251447e+003;2.978477e-001
3.252411e+003;2.989203e-001
3.253375e+003;3.000024e-001
3.254339e+003;3.011031e-001
3.255303e+003;3.022114e-001
3.256268e+003;3.033163e-001
3.257232e+003;3.044110e-001
3.258196e+003;3.054712e-001
3.259161e+003;3.064723e-001
3.260125e+003;3.074364e-001
3.261089e+003;3.084216e-001
3.262053e+003;3.094524e-001
3.263018e+003;3.105120e-001
3.263982e+003;3.116063e-001
3.264946e+003;3.127708e-001
3.265910e+003;3.139872e-001
3.266875e+003;3.151571e-001
3.267839e+003;3.162043e-001
3.268803e+003;3.171626e-001
3.269767e+003;3.181245e-001
3.270731e+003;3.191436e-001
3.271696e+003;3.202196e-001
3.272660e+003;3.213343e-001
3.273624e+003;3.224558e-001
3.274589e+003;3.235371e-001
3.275553e+003;3.245550e-001
3.276517e+003;3.255310e-001
3.277481e+003;3.264923e-001
3.278446e+003;3.274487e-001
3.279410e+003;3.284281e-001
3.280374e+003;3.294832e-001
3.281338e+003;3.306191e-001
3.282302e+003;3.317521e-001
3.283267e+003;3.327872e-001
3.284231e+003;3.337098e-001
3.285195e+003;3.345699e-001
3.286159e+003;3.354094e-001
3.287124e+003;3.362427e-001
3.288088e+003;3.370740e-001
3.289052e+003;3.378953e-001
3.290017e+003;3.386923e-001
3.290981e+003;3.394815e-001
3.291945e+003;3.403100e-001
3.292909e+003;3.411907e-001
3.293874e+003;3.420804e-001
3.294838e+003;3.429558e-001
3.295802e+003;3.438669e-001
3.296766e+003;3.448661e-001
3.297730e+003;3.459266e-001
3.298695e+003;3.469792e-001
3.299659e+003;3.479966e-001
3.300623e+003;3.489911e-001
3.301587e+003;3.499663e-001
3.302552e+003;3.509241e-001
3.303516e+003;3.518962e-001
3.304480e+003;3.529150e-001
3.305445e+003;3.539723e-001
3.306409e+003;3.550419e-001
3.307373e+003;3.561148e-001
3.308337e+003;3.571723e-001
3.309302e+003;3.581691e-001
3.310266e+003;3.590897e-001
3.311230e+003;3.599901e-001
3.312194e+003;3.609309e-001
3.313158e+003;3.619071e-001
3.314123e+003;3.628955e-001
3.315087e+003;3.639205e-001
3.316051e+003;3.650038e-001
3.317015e+003;3.660929e-001
3.317980e+003;3.671226e-001
3.318944e+003;3.681191e-001
3.319908e+003;3.691576e-001
3.320873e+003;3.702414e-001
3.321837e+003;3.713148e-001
3.322801e+003;3.723819e-001
3.323765e+003;3.735090e-001
3.324729e+003;3.747006e-001
3.325694e+003;3.758649e-001
3.326658e+003;3.769356e-001
3.327622e+003;3.779490e-001
3.328586e+003;3.789759e-001
3.329551e+003;3.800418e-001
3.330515e+003;3.811472e-001
3.331479e+003;3.823031e-001
3.332443e+003;3.835069e-001
3.333408e+003;3.847232e-001
3.334372e+003;3.859182e-001
3.335336e+003;3.870789e-001
3.336301e+003;3.881884e-001
3.337265e+003;3.892313e-001
3.338229e+003;3.902448e-001
3.339193e+003;3.913084e-001
3.340157e+003;3.924543e-001
3.341122e+003;3.936237e-001
3.342086e+003;3.947435e-001
3.343050e+003;3.958088e-001
3.344014e+003;3.968658e-001
3.344979e+003;3.979455e-001
3.345943e+003;3.990431e-001
3.346907e+003;4.001358e-001
3.347871e+003;4.011991e-001
3.348836e+003;4.022291e-001
3.349800e+003;4.032616e-001
3.350764e+003;4.043367e-001
3.351729e+003;4.054307e-001
3.352693e+003;4.064700e-001
3.353657e+003;4.074377e-001
3.354621e+003;4.084232e-001
3.355585e+003;4.095234e-001
3.356550e+003;4.107241e-001
3.357514e+003;4.119218e-001
3.358478e+003;4.130437e-001
3.359442e+003;4.141028e-001
3.360407e+003;4.151459e-001
3.361371e+003;4.161966e-001
3.362335e+003;4.172558e-001
3.363299e+003;4.183239e-001
3.364264e+003;4.194009e-001
3.365228e+003;4.204747e-001
3.366192e+003;4.215183e-001
3.367156e+003;4.224992e-001
3.368121e+003;4.233998e-001
3.369085e+003;4.242412e-001
3.370049e+003;4.250861e-001
3.371013e+003;4.260032e-001
3.371978e+003;4.270244e-001
3.372942e+003;4.281308e-001
3.373906e+003;4.292697e-001
3.374870e+003;4.303827e-001
3.375835e+003;4.314322e-001
3.376799e+003;4.324238e-001
3.377763e+003;4.333975e-001
3.378727e+003;4.343867e-001
3.379692e+003;4.353875e-001
3.380656e+003;4.363779e-001
3.381620e+003;4.373617e-001
3.382584e+003;4.383731e-001
3.383549e+003;4.394363e-001
3.384513e+003;4.405328e-001
3.385477e+003;4.416139e-001
3.386441e+003;4.426390e-001
3.387406e+003;4.435923e-001
3.388370e+003;4.444850e-001
3.389334e+003;4.453526e-001
3.390298e+003;4.462492e-001
3.391263e+003;4.472191e-001
3.392227e+003;4.482624e-001
3.393191e+003;4.493385e-001
3.394155e+003;4.504102e-001
3.395120e+003;4.514773e-001
3.396084e+003;4.525588e-001
3.397048e+003;4.536541e-001
3.398012e+003;4.547352e-001
3.398977e+003;4.557757e-001
3.399941e+003;4.567743e-001
3.400905e+003;4.577515e-001
3.401869e+003;4.587282e-001
3.402833e+003;4.597120e-001
3.403798e+003;4.607010e-001
3.404762e+003;4.617087e-001
3.405726e+003;4.627784e-001
3.406691e+003;4.639545e-001
3.407655e+003;4.652257e-001
3.408619e+003;4.665156e-001
3.409583e+003;4.677482e-001
3.410548e+003;4.689217e-001
3.411512e+003;4.700972e-001
3.412476e+003;4.713205e-001
3.413440e+003;4.725713e-001
3.414405e+003;4.737948e-001
3.415369e+003;4.749689e-001
3.416333e+003;4.761333e-001
3.417297e+003;4.773524e-001
3.418261e+003;4.786427e-001
3.419226e+003;4.799407e-001
3.420190e+003;4.811600e-001
3.421154e+003;4.822863e-001
3.422119e+003;4.833972e-001
3.423083e+003;4.845754e-001
3.424047e+003;4.858303e-001
3.425011e+003;4.871220e-001
3.425976e+003;4.884263e-001
3.426940e+003;4.897365e-001
3.427904e+003;4.910240e-001
3.428868e+003;4.922530e-001
3.429833e+003;4.934298e-001
3.430797e+003;4.945994e-001
3.431761e+003;4.957881e-001
3.432725e+003;4.969910e-001
3.433689e+003;4.982181e-001
3.434654e+003;4.995075e-001
3.435618e+003;5.008705e-001
3.436582e+003;5.022535e-001
3.437547e+003;5.035795e-001
3.438511e+003;5.048227e-001
3.439475e+003;5.060276e-001
3.440439e+003;5.072629e-001
3.441404e+003;5.085518e-001
3.442368e+003;5.098448e-001
3.443332e+003;5.110708e-001
3.444296e+003;5.122262e-001
3.445260e+003;5.133899e-001
3.446225e+003;5.146298e-001
3.447189e+003;5.159140e-001
3.448153e+003;5.171565e-001
3.449117e+003;5.183360e-001
3.450082e+003;5.195262e-001
3.451046e+003;5.208015e-001
3.452010e+003;5.221502e-001
3.452975e+003;5.234897e-001
3.453939e+003;5.247439e-001
3.454903e+003;5.259017e-001
3.455867e+003;5.270186e-001
3.456832e+003;5.281717e-001
3.457796e+003;5.294068e-001
3.458760e+003;5.307230e-001
3.459724e+003;5.321026e-001
3.460688e+003;5.335232e-001
3.461653e+003;5.349408e-001
3.462617e+003;5.362997e-001
3.463581e+003;5.375890e-001
3.464545e+003;5.388486e-001
3.465510e+003;5.401020e-001
3.466474e+003;5.413243e-001
3.467438e+003;5.425169e-001
3.468403e+003;5.437610e-001
3.469367e+003;5.451381e-001
3.470331e+003;5.466298e-001
3.471295e+003;5.481485e-001
3.472260e+003;5.496281e-001
3.473224e+003;5.510381e-001
3.474188e+003;5.523495e-001
3.475152e+003;5.535684e-001
3.476116e+003;5.547732e-001
3.477081e+003;5.560436e-001
3.478045e+003;5.573677e-001
3.479009e+003;5.586829e-001
3.479973e+003;5.599783e-001
3.480938e+003;5.612862e-001
3.481902e+003;5.626025e-001
3.482866e+003;5.639082e-001
3.483831e+003;5.652476e-001
3.484795e+003;5.666906e-001
3.485759e+003;5.682163e-001
3.486723e+003;5.697228e-001
3.487688e+003;5.711514e-001
3.488652e+003;5.725315e-001
3.489616e+003;5.739058e-001
3.490580e+003;5.753028e-001
3.491544e+003;5.767716e-001
3.492509e+003;5.783483e-001
3.493473e+003;5.799769e-001
3.494437e+003;5.815522e-001
3.495402e+003;5.830504e-001
3.496366e+003;5.845374e-001
3.497330e+003;5.860594e-001
3.498294e+003;5.876132e-001
3.499259e+003;5.892193e-001
3.500223e+003;5.909058e-001
3.501187e+003;5.926126e-001
3.502151e+003;5.942319e-001
3.503115e+003;5.957690e-001
3.504080e+003;5.973504e-001
3.505044e+003;5.990376e-001
3.506008e+003;6.007506e-001
3.506972e+003;6.024032e-001
3.507937e+003;6.040038e-001
3.508901e+003;6.055708e-001
3.509865e+003;6.070799e-001
3.510830e+003;6.085649e-001
3.511794e+003;6.101604e-001
3.512758e+003;6.119434e-001
3.513722e+003;6.138110e-001
3.514687e+003;6.155967e-001
3.515651e+003;6.172462e-001
3.516615e+003;6.188151e-001
3.517579e+003;6.203678e-001
3.518543e+003;6.219594e-001
3.519508e+003;6.236582e-001
3.520472e+003;6.254889e-001
3.521436e+003;6.273862e-001
3.522400e+003;6.292638e-001
3.523365e+003;6.311090e-001
3.524329e+003;6.329612e-001
3.525293e+003;6.348357e-001
3.526258e+003;6.367148e-001
3.527222e+003;6.385779e-001
3.528186e+003;6.404037e-001
3.529150e+003;6.421766e-001
3.530115e+003;6.439171e-001
3.531079e+003;6.456658e-001
3.532043e+003;6.474261e-001
3.533007e+003;6.491817e-001
3.533971e+003;6.509747e-001
3.534936e+003;6.528889e-001
3.535900e+003;6.549194e-001
3.536864e+003;6.569441e-001
3.537828e+003;6.588699e-001
3.538793e+003;6.607468e-001
3.539757e+003;6.626976e-001
3.540721e+003;6.648005e-001
3.541686e+003;6.670702e-001
3.542650e+003;6.694672e-001
3.543614e+003;6.718785e-001
3.544578e+003;6.741735e-001
3.545542e+003;6.763419e-001
3.546507e+003;6.785107e-001
3.547471e+003;6.807731e-001
3.548435e+003;6.830869e-001
3.549399e+003;6.853995e-001
3.550364e+003;6.877841e-001
3.551328e+003;6.903433e-001
3.552292e+003;6.930397e-001
3.553256e+003;6.957297e-001
3.554221e+003;6.983571e-001
3.555185e+003;7.010278e-001
3.556149e+003;7.038931e-001
3.557114e+003;7.070004e-001
3.558078e+003;7.102607e-001
3.559042e+003;7.135313e-001
3.560006e+003;7.167380e-001
3.560970e+003;7.199277e-001
3.561935e+003;7.231959e-001
3.562899e+003;7.265798e-001
3.563863e+003;7.300694e-001
3.564827e+003;7.336965e-001
3.565792e+003;7.375223e-001
3.566756e+003;7.415224e-001
3.567720e+003;7.455720e-001
3.568684e+003;7.495877e-001
3.569649e+003;7.536157e-001
3.570613e+003;7.577424e-001
3.571577e+003;7.619897e-001
3.572542e+003;7.663445e-001
3.573506e+003;7.708477e-001
3.574470e+003;7.755978e-001
3.575434e+003;7.806681e-001
3.576398e+003;7.860191e-001
3.577363e+003;7.914858e-001
3.578327e+003;7.968907e-001
3.579291e+003;8.022121e-001
3.580255e+003;8.075823e-001
3.581220e+003;8.130745e-001
3.582184e+003;8.185875e-001
3.583148e+003;8.240476e-001
3.584112e+003;8.296178e-001
3.585077e+003;8.355190e-001
3.586041e+003;8.416671e-001
3.587005e+003;8.476767e-001
3.587969e+003;8.532259e-001
3.588934e+003;8.582712e-001
3.589898e+003;8.629011e-001
3.590862e+003;8.671745e-001
3.591826e+003;8.711240e-001
3.592791e+003;8.747426e-001
3.593755e+003;8.779111e-001
3.594719e+003;8.804763e-001
3.595683e+003;8.824245e-001
3.596648e+003;8.838475e-001
3.597612e+003;8.847404e-001
3.598576e+003;8.849876e-001
3.599540e+003;8.845430e-001
3.600505e+003;8.834614e-001
3.601469e+003;8.817481e-001
3.602433e+003;8.793555e-001
3.603397e+003;8.763514e-001
3.604362e+003;8.729205e-001
3.605326e+003;8.691821e-001
3.606290e+003;8.651451e-001
3.607254e+003;8.608450e-001
3.608219e+003;8.563538e-001
3.609183e+003;8.516358e-001
3.610147e+003;8.465966e-001
3.611111e+003;8.413188e-001
3.612076e+003;8.360764e-001
3.613040e+003;8.310496e-001
3.614004e+003;8.261766e-001
3.614968e+003;8.213481e-001
3.615933e+003;8.166028e-001
3.616897e+003;8.120655e-001
3.617861e+003;8.078197e-001
3.618825e+003;8.038968e-001
3.619790e+003;8.002638e-001
3.620754e+003;7.967852e-001
3.621718e+003;7.933322e-001
3.622682e+003;7.899582e-001
3.623646e+003;7.868321e-001
3.624611e+003;7.840018e-001
3.625575e+003;7.814321e-001
3.626539e+003;7.792713e-001
3.627504e+003;7.777724e-001
3.628468e+003;7.768133e-001
3.629432e+003;7.758073e-001
3.630396e+003;7.743580e-001
3.631361e+003;7.727486e-001
3.632325e+003;7.715079e-001
3.633289e+003;7.707450e-001
3.634253e+003;7.701926e-001
3.635218e+003;7.697395e-001
3.636182e+003;7.695495e-001
3.637146e+003;7.696813e-001
3.638110e+003;7.699344e-001
3.639074e+003;7.701354e-001
3.640039e+003;7.703334e-001
3.641003e+003;7.706238e-001
3.641967e+003;7.709680e-001
3.642932e+003;7.712735e-001
3.643896e+003;7.715251e-001
3.644860e+003;7.717788e-001
3.645824e+003;7.721175e-001
3.646789e+003;7.726321e-001
3.647753e+003;7.733425e-001
3.648717e+003;7.741179e-001
3.649681e+003;7.747567e-001
3.650646e+003;7.751465e-001
3.651610e+003;7.752906e-001
3.652574e+003;7.752391e-001
3.653538e+003;7.750950e-001
3.654502e+003;7.750203e-001
3.655467e+003;7.750890e-001
3.656431e+003;7.751524e-001
3.657395e+003;7.749739e-001
3.658360e+003;7.744978e-001
3.659324e+003;7.738827e-001
3.660288e+003;7.733005e-001
3.661252e+003;7.727987e-001
3.662217e+003;7.723333e-001
3.663181e+003;7.718337e-001
3.664145e+003;7.712432e-001
3.665109e+003;7.705708e-001
3.666073e+003;7.699147e-001
3.667038e+003;7.694142e-001
3.668002e+003;7.692125e-001
3.668966e+003;7.694183e-001
3.669930e+003;7.699384e-001
3.670895e+003;7.703388e-001
3.671859e+003;7.701668e-001
3.672823e+003;7.695554e-001
3.673788e+003;7.692496e-001
3.674752e+003;7.697907e-001
3.675716e+003;7.708190e-001
3.676680e+003;7.715060e-001
3.677645e+003;7.716033e-001
3.678609e+003;7.716355e-001
3.679573e+003;7.721327e-001
3.680537e+003;7.731000e-001
3.681501e+003;7.742764e-001
3.682466e+003;7.755164e-001
3.683430e+003;7.767432e-001
3.684394e+003;7.778745e-001
3.685358e+003;7.790551e-001
3.686323e+003;7.807074e-001
3.687287e+003;7.830575e-001
3.688251e+003;7.857510e-001
3.689216e+003;7.882311e-001
3.690180e+003;7.904093e-001
3.691144e+003;7.926424e-001
3.692108e+003;7.951340e-001
3.693073e+003;7.977002e-001
3.694037e+003;8.001442e-001
3.695001e+003;8.025714e-001
3.695965e+003;8.052053e-001
3.696929e+003;8.081097e-001
3.697894e+003;8.112464e-001
3.698858e+003;8.146693e-001
3.699822e+003;8.184745e-001
3.700786e+003;8.226061e-001
3.701751e+003;8.268676e-001
3.702715e+003;8.311437e-001
3.703679e+003;8.355071e-001
3.704644e+003;8.401018e-001
3.705608e+003;8.450148e-001
3.706572e+003;8.502820e-001
3.707536e+003;8.559294e-001
3.708500e+003;8.619663e-001
3.709465e+003;8.683754e-001
3.710429e+003;8.751205e-001
3.711393e+003;8.820889e-001
3.712357e+003;8.890612e-001
3.713322e+003;8.958806e-001
3.714286e+003;9.026975e-001
3.715250e+003;9.099046e-001
3.716214e+003;9.177625e-001
3.717179e+003;9.261764e-001
3.718143e+003;9.348843e-001
3.719107e+003;9.437580e-001
3.720072e+003;9.528763e-001
3.721036e+003;9.624876e-001
3.722000e+003;9.729950e-001
3.722964e+003;9.847629e-001
3.723928e+003;9.977822e-001
3.724893e+003;1.011699e+000
3.725857e+003;1.026329e+000
3.726821e+003;1.041903e+000
3.727785e+003;1.058648e+000
3.728750e+003;1.076470e+000
3.729714e+003;1.095314e+000
3.730678e+003;1.115345e+000
3.731642e+003;1.136308e+000
3.732607e+003;1.157141e+000
3.733571e+003;1.176794e+000
3.734535e+003;1.194833e+000
3.735500e+003;1.210453e+000
3.736464e+003;1.221390e+000
3.737428e+003;1.224520e+000
3.738392e+003;1.216681e+000
3.739356e+003;1.194544e+000
3.740321e+003;1.155927e+000
3.741285e+003;1.102597e+000
3.742249e+003;1.040174e+000
3.743213e+003;9.752389e-001
3.744178e+003;9.135204e-001
3.745142e+003;8.592049e-001
3.746106e+003;8.142679e-001
3.747070e+003;7.786680e-001
3.748035e+003;7.513271e-001
3.748999e+003;7.307019e-001
3.749963e+003;7.149757e-001
3.750927e+003;7.025508e-001
3.751892e+003;6.924660e-001
3.752856e+003;6.841655e-001
3.753820e+003;6.771374e-001
3.754784e+003;6.710526e-001
3.755749e+003;6.659498e-001
3.756713e+003;6.619146e-001
3.757677e+003;6.586958e-001
3.758641e+003;6.559018e-001
3.759606e+003;6.534058e-001
3.760570e+003;6.512645e-001
3.761534e+003;6.494009e-001
3.762498e+003;6.476914e-001
3.763463e+003;6.462376e-001
3.764427e+003;6.452114e-001
3.765391e+003;6.444866e-001
3.766355e+003;6.437442e-001
3.767320e+003;6.429232e-001
3.768284e+003;6.422598e-001
3.769248e+003;6.418614e-001
3.770212e+003;6.415162e-001
3.771177e+003;6.409901e-001
3.772141e+003;6.402895e-001
3.773105e+003;6.395547e-001
3.774069e+003;6.388708e-001
3.775034e+003;6.382605e-001
3.775998e+003;6.377311e-001
3.776962e+003;6.372690e-001
3.777926e+003;6.368634e-001
3.778891e+003;6.365256e-001
3.779855e+003;6.362090e-001
3.780819e+003;6.357555e-001
3.781783e+003;6.350688e-001
3.782748e+003;6.342927e-001
3.783712e+003;6.336785e-001
3.784676e+003;6.332934e-001
3.785640e+003;6.330087e-001
3.786604e+003;6.327452e-001
3.787569e+003;6.325504e-001
3.788533e+003;6.324325e-001
3.789497e+003;6.323173e-001
3.790462e+003;6.322027e-001
3.791426e+003;6.321786e-001
3.792390e+003;6.322464e-001
3.793354e+003;6.323058e-001
3.794319e+003;6.323814e-001
3.795283e+003;6.326575e-001
3.796247e+003;6.331542e-001
3.797211e+003;6.335681e-001
3.798176e+003;6.336602e-001
3.799140e+003;6.336883e-001
3.800104e+003;6.341783e-001
3.801068e+003;6.352201e-001
3.802032e+003;6.362154e-001
3.802997e+003;6.365327e-001
3.803961e+003;6.362717e-001
3.804925e+003;6.361406e-001
3.805890e+003;6.366326e-001
3.806854e+003;6.375098e-001
3.807818e+003;6.382021e-001
3.808782e+003;6.385582e-001
3.809747e+003;6.389177e-001
3.810711e+003;6.395059e-001
3.811675e+003;6.400989e-001
3.812639e+003;6.404416e-001
3.813604e+003;6.407480e-001
3.814568e+003;6.414803e-001
3.815532e+003;6.426659e-001
3.816496e+003;6.437197e-001
3.817460e+003;6.441090e-001
3.818425e+003;6.440147e-001
3.819389e+003;6.441432e-001
3.820353e+003;6.449603e-001
3.821318e+003;6.462052e-001
3.822282e+003;6.471971e-001
3.823246e+003;6.475688e-001
3.824210e+003;6.475778e-001
3.825175e+003;6.477190e-001
3.826139e+003;6.481855e-001
3.827103e+003;6.487838e-001
3.828067e+003;6.492975e-001
3.829031e+003;6.497628e-001
3.829996e+003;6.503593e-001
3.830960e+003;6.511564e-001
3.831924e+003;6.520347e-001
3.832888e+003;6.527779e-001
3.833853e+003;6.532345e-001
3.834817e+003;6.534817e-001
3.835781e+003;6.538460e-001
3.836746e+003;6.546239e-001
3.837710e+003;6.557144e-001
3.838674e+003;6.566712e-001
3.839638e+003;6.572101e-001
3.840603e+003;6.575069e-001
3.841567e+003;6.579067e-001
3.842531e+003;6.585045e-001
3.843495e+003;6.591375e-001
3.844459e+003;6.596605e-001
3.845424e+003;6.600707e-001
3.846388e+003;6.604273e-001
3.847352e+003;6.607834e-001
3.848316e+003;6.611574e-001
3.849281e+003;6.615155e-001
3.850245e+003;6.618778e-001
3.851209e+003;6.624863e-001
3.852174e+003;6.636611e-001
3.853138e+003;6.653003e-001
3.854102e+003;6.667110e-001
3.855066e+003;6.672518e-001
3.856031e+003;6.670216e-001
3.856995e+003;6.666621e-001
3.857959e+003;6.666493e-001
3.858923e+003;6.670021e-001
3.859887e+003;6.675229e-001
3.860852e+003;6.680477e-001
3.861816e+003;6.684954e-001
3.862780e+003;6.689309e-001
3.863744e+003;6.695561e-001
3.864709e+003;6.704039e-001
3.865673e+003;6.711165e-001
3.866637e+003;6.713538e-001
3.867602e+003;6.713746e-001
3.868566e+003;6.718121e-001
3.869530e+003;6.728150e-001
3.870494e+003;6.738042e-001
3.871458e+003;6.742713e-001
3.872423e+003;6.744179e-001
3.873387e+003;6.747168e-001
3.874351e+003;6.752023e-001
3.875315e+003;6.755548e-001
3.876280e+003;6.756929e-001
3.877244e+003;6.758939e-001
3.878208e+003;6.763774e-001
3.879172e+003;6.770690e-001
3.880137e+003;6.777692e-001
3.881101e+003;6.783351e-001
3.882065e+003;6.787146e-001
3.883030e+003;6.790004e-001
3.883994e+003;6.794283e-001
3.884958e+003;6.801184e-001
3.885922e+003;6.808255e-001
3.886886e+003;6.811792e-001
3.887851e+003;6.811962e-001
3.888815e+003;6.813213e-001
3.889779e+003;6.819057e-001
3.890743e+003;6.828166e-001
3.891708e+003;6.836425e-001
3.892672e+003;6.841503e-001
3.893636e+003;6.844292e-001
3.894600e+003;6.846946e-001
3.895565e+003;6.850948e-001
3.896529e+003;6.856594e-001
3.897493e+003;6.863227e-001
3.898458e+003;6.869830e-001
3.899422e+003;6.875806e-001
3.900386e+003;6.881281e-001
3.901350e+003;6.886672e-001
3.902314e+003;6.892276e-001
3.903279e+003;6.898159e-001
3.904243e+003;6.903880e-001
3.905207e+003;6.908388e-001
3.906171e+003;6.910903e-001
3.907136e+003;6.912103e-001
3.908100e+003;6.913818e-001
3.909064e+003;6.917340e-001
3.910028e+003;6.922322e-001
3.910993e+003;6.927480e-001
3.911957e+003;6.931829e-001
3.912921e+003;6.935337e-001
3.913885e+003;6.938978e-001
3.914850e+003;6.944228e-001
3.915814e+003;6.951721e-001
3.916778e+003;6.960151e-001
3.917742e+003;6.967247e-001
3.918707e+003;6.972200e-001
3.919671e+003;6.976290e-001
3.920635e+003;6.980897e-001
3.921599e+003;6.985982e-001
3.922564e+003;6.991145e-001
3.923528e+003;6.997018e-001
3.924492e+003;7.004303e-001
3.925456e+003;7.011996e-001
3.926421e+003;7.018070e-001
3.927385e+003;7.021852e-001
3.928349e+003;7.024655e-001
3.929313e+003;7.028114e-001
3.930278e+003;7.032952e-001
3.931242e+003;7.039320e-001
3.932206e+003;7.047012e-001
3.933170e+003;7.054922e-001
3.934135e+003;7.061582e-001
3.935099e+003;7.066934e-001
3.936063e+003;7.072507e-001
3.937027e+003;7.079000e-001
3.937992e+003;7.084818e-001
3.938956e+003;7.088258e-001
3.939920e+003;7.090402e-001
3.940884e+003;7.094215e-001
3.941849e+003;7.100872e-001
3.942813e+003;7.108466e-001
3.943777e+003;7.114659e-001
3.944741e+003;7.119415e-001
3.945706e+003;7.124450e-001
3.946670e+003;7.130905e-001
3.947634e+003;7.138335e-001
3.948598e+003;7.145476e-001
3.949563e+003;7.151451e-001
3.950527e+003;7.156364e-001
3.951491e+003;7.161089e-001
3.952455e+003;7.166265e-001
3.953420e+003;7.171527e-001
3.954384e+003;7.176160e-001
3.955348e+003;7.180448e-001
3.956312e+003;7.185637e-001
3.957277e+003;7.192407e-001
3.958241e+003;7.200129e-001
3.959205e+003;7.207863e-001
3.960169e+003;7.215223e-001
3.961134e+003;7.221881e-001
3.962098e+003;7.227230e-001
3.963062e+003;7.231331e-001
3.964026e+003;7.235370e-001
3.964991e+003;7.240241e-001
3.965955e+003;7.245333e-001
3.966919e+003;7.249693e-001
3.967883e+003;7.253742e-001
3.968848e+003;7.258627e-001
3.969812e+003;7.264287e-001
3.970776e+003;7.269592e-001
3.971740e+003;7.274339e-001
3.972705e+003;7.279759e-001
3.973669e+003;7.286772e-001
3.974633e+003;7.294821e-001
3.975597e+003;7.302757e-001
3.976562e+003;7.309901e-001
3.977526e+003;7.315915e-001
3.978490e+003;7.320706e-001
3.979454e+003;7.324973e-001
3.980419e+003;7.329959e-001
3.981383e+003;7.335972e-001
3.982347e+003;7.341887e-001
3.983311e+003;7.346764e-001
3.984276e+003;7.351284e-001
3.985240e+003;7.356859e-001
3.986204e+003;7.363847e-001
3.987168e+003;7.371356e-001
3.988133e+003;7.378370e-001
3.989097e+003;7.384342e-001
3.990061e+003;7.389093e-001
3.991025e+003;7.393109e-001
3.991990e+003;7.397666e-001
3.992954e+003;7.403711e-001
3.993918e+003;7.410579e-001
3.994882e+003;7.416685e-001
3.995847e+003;7.421728e-001
3.996811e+003;7.427309e-001
3.997775e+003;7.434881e-001
3.998739e+003;7.443660e-001
3.999704e+003;7.451302e-001
